I II V1 V2 V3 V4 V5 V6
-2 10 0 1 -11 -4 -4 5
-3 8 -2 1 -13 -4 -5 5
-10 8 -2 1 -13 -4 -5 5
-11 13 0 3 -10 -2 -2 8
-4 21 -2 3 -9 1 0 10
-2 22 -6 1 -10 0 -2 9
-10 15 -8 -2 -12 -3 -3 7
-13 10 -9 -2 -12 -4 -4 5
-9 13 -9 -2 -11 -5 -4 6
-2 19 -9 1 -11 -3 -2 7
6 25 -8 2 -9 0 1 9
9 27 -7 3 -6 2 4 12
11 29 -9 2 -7 2 4 13
14 30 -10 2 -7 2 5 13
11 24 -12 0 -10 -2 2 10
2 16 -12 -2 -12 -4 0 8
0 16 -13 -3 -12 -5 -2 8
6 19 -13 -4 -12 -5 0 9
5 17 -14 -7 -14 -7 -3 7
-2 12 -14 -8 -14 -6 -2 7
0 15 -11 -4 -11 -3 2 8
1 14 -8 -2 -9 -2 2 8
-7 5 -6 -3 -11 -5 -2 4
-10 1 -6 -4 -12 -7 -5 1
-3 7 -2 1 -9 -5 -4 3
5 10 3 3 -7 -4 -3 4
4 5 2 0 -9 -8 -7 0
-4 -3 -2 -4 -12 -11 -10 -5
-10 -7 -2 -6 -13 -12 -11 -5
-16 -9 -3 -9 -15 -13 -11 -5
-16 -11 -5 -11 -18 -16 -13 -6
-12 -9 -5 -12 -18 -16 -14 -7
-10 -8 0 -9 -15 -14 -12 -6
-9 -5 0 -9 -14 -14 -12 -6
-8 -3 2 -8 -14 -14 -13 -6
-8 -4 4 -7 -13 -15 -14 -6
-7 -5 4 -8 -14 -16 -14 -7
-6 -5 4 -8 -13 -16 -14 -6
-8 -5 3 -10 -15 -16 -14 -7
-10 -8 3 -11 -15 -14 -13 -7
-10 -9 3 -11 -15 -15 -15 -7
-11 -9 3 -11 -15 -15 -15 -6
-10 -9 6 -9 -13 -14 -12 -4
-7 -7 8 -7 -12 -11 -11 -3
-7 -7 9 -6 -11 -12 -13 -5
-8 -7 10 -6 -11 -13 -14 -7
-7 -5 11 -6 -11 -12 -14 -8
-10 -8 9 -8 -12 -13 -14 -8
-17 -13 5 -11 -13 -15 -17 -9
-14 -13 7 -10 -12 -14 -15 -8
-7 -6 11 -7 -9 -10 -12 -4
-5 -4 10 -7 -8 -8 -11 -3
-9 -9 9 -9 -10 -11 -13 -5
-11 -11 8 -8 -12 -13 -16 -7
-11 -11 11 -4 -8 -13 -17 -8
-11 -10 17 6 0 -12 -17 -10
-12 -10 25 17 10 -7 -15 -9
-10 -10 30 27 22 2 -12 -9
-6 -10 34 37 36 14 -7 -8
0 -11 35 45 49 30 4 -4
4 -9 35 52 61 51 18 5
8 -5 37 66 79 76 35 14
14 2 38 84 104 108 58 26
28 11 32 92 126 144 87 44
51 25 15 81 137 180 116 64
74 42 -8 56 140 219 148 85
91 56 -31 26 138 258 182 106
96 63 -55 -8 127 297 215 126
102 67 -77 -47 107 330 244 143
116 73 -91 -73 96 361 270 158
128 77 -94 -80 97 384 284 163
126 68 -90 -80 99 390 280 157
118 45 -81 -80 94 376 258 140
107 16 -74 -82 78 340 218 112
85 -16 -68 -86 54 283 164 78
56 -38 -62 -94 23 218 114 48
38 -33 -60 -109 -16 147 73 29
25 -14 -63 -131 -61 74 38 19
7 -3 -68 -151 -105 3 3 6
-13 6 -69 -164 -137 -54 -28 -8
-24 17 -69 -169 -151 -88 -48 -15
-25 25 -66 -161 -149 -99 -54 -18
-23 24 -58 -143 -133 -91 -49 -17
-20 15 -52 -123 -114 -77 -44 -19
-20 5 -45 -102 -94 -67 -39 -19
-16 1 -34 -78 -71 -55 -32 -15
-11 2 -20 -57 -52 -43 -25 -11
-9 1 -9 -44 -39 -36 -22 -8
-10 0 -3 -33 -32 -34 -22 -8
-13 1 3 -26 -25 -31 -20 -7
-14 -3 7 -19 -19 -27 -19 -7
-13 -4 8 -17 -17 -27 -20 -8
-8 1 11 -14 -14 -25 -18 -8
-3 5 14 -12 -11 -23 -18 -8
-5 1 16 -9 -10 -22 -18 -9
-10 -6 17 -8 -10 -23 -19 -10
-11 -7 19 -6 -8 -22 -18 -9
-9 -6 21 -2 -6 -21 -18 -9
-6 -7 22 0 -5 -21 -19 -9
-7 -9 22 1 -4 -22 -18 -9
-9 -9 24 3 -2 -19 -17 -8
-7 -7 25 4 1 -18 -16 -7
-2 -4 25 4 1 -18 -16 -7
-2 -3 25 5 2 -17 -16 -6
-8 -7 24 5 1 -16 -17 -7
-13 -11 22 3 -2 -19 -19 -9
-11 -9 22 4 -3 -20 -20 -9
-10 -8 25 6 0 -19 -19 -8
-10 -8 25 6 -2 -19 -20 -9
-8 -3 26 8 2 -16 -17 -8
-2 3 27 9 4 -15 -15 -6
-2 -3 27 8 4 -16 -15 -7
-6 -9 23 4 0 -19 -18 -11
-10 -11 22 3 -2 -20 -19 -12
-11 -11 24 5 1 -18 -18 -10
-10 -12 24 6 0 -18 -18 -10
-4 -9 22 5 -3 -20 -19 -11
3 -4 25 8 0 -18 -17 -9
4 3 26 10 2 -16 -15 -7
2 2 26 10 3 -14 -13 -6
-2 -2 26 11 5 -13 -12 -5
-3 -2 28 11 6 -12 -12 -4
-7 -5 27 10 5 -14 -13 -5
-10 -8 25 8 3 -15 -13 -6
-9 -7 24 8 3 -16 -13 -7
-6 -7 24 8 3 -16 -13 -8
-5 -7 25 10 4 -16 -13 -7
-4 -3 26 12 5 -15 -13 -6
0 1 27 12 6 -15 -13 -5
0 -3 26 10 5 -17 -14 -7
0 -6 22 8 2 -18 -17 -9
-2 -4 23 8 2 -18 -17 -9
-4 0 25 9 3 -17 -16 -8
-3 -2 25 10 4 -16 -14 -7
1 1 25 11 5 -14 -13 -7
1 3 26 12 6 -13 -13 -7
-4 0 25 12 5 -14 -14 -7
-8 -7 24 11 4 -15 -14 -7
-6 -5 25 13 6 -15 -13 -5
1 3 26 14 7 -15 -11 -5
3 3 25 14 7 -14 -11 -3
0 -2 23 11 5 -16 -14 -5
-2 -3 23 12 6 -15 -12 -5
2 1 25 15 8 -11 -10 -3
3 3 26 16 9 -9 -9 -2
0 1 25 16 9 -9 -10 -4
-4 -3 25 18 10 -9 -10 -4
-6 -3 25 19 10 -8 -10 -3
-7 -5 26 19 9 -10 -11 -4
-3 -4 26 18 9 -13 -13 -4
2 2 26 19 10 -12 -12 -4
0 1 27 22 12 -8 -10 -2
-4 -3 27 22 13 -6 -9 -2
-2 0 28 24 15 -3 -6 0
1 3 29 26 16 -2 -5 1
0 4 29 27 17 -3 -5 0
1 5 28 27 16 -3 -6 -2
4 5 29 28 17 0 -6 1
3 4 28 28 17 0 -6 2
-2 1 28 29 17 0 -5 3
1 1 28 29 18 0 -5 3
4 4 29 32 21 2 -3 3
2 4 31 33 24 4 0 4
2 5 30 32 24 4 -2 3
9 8 28 32 23 5 -3 2
10 7 28 34 24 5 -3 2
5 4 28 36 24 5 -2 2
5 4 29 36 25 6 0 3
6 5 28 36 25 5 -2 2
4 2 27 36 24 5 -3 1
5 3 26 36 26 6 -3 0
11 10 29 40 31 10 2 4
13 15 31 45 35 14 6 8
9 12 31 46 36 16 8 9
7 9 29 44 35 15 6 7
14 14 30 47 36 17 8 9
22 22 33 51 39 20 11 11
21 20 32 51 40 22 11 12
16 13 28 48 39 20 9 9
14 12 26 48 39 20 9 9
14 13 28 50 43 24 12 11
12 13 27 50 42 24 12 11
14 12 27 49 40 23 12 12
18 14 27 50 40 24 15 15
23 17 28 52 43 28 18 18
27 22 27 53 45 31 20 20
28 25 27 53 45 32 21 20
26 24 25 52 44 31 20 18
22 21 24 51 43 31 19 17
18 19 23 50 43 32 20 17
16 17 23 50 43 33 21 18
20 19 22 49 43 33 21 20
25 23 24 50 43 36 23 23
25 27 25 50 44 38 25 26
22 26 25 51 44 40 27 28
19 22 22 49 43 38 25 27
16 20 22 48 42 37 24 26
18 21 22 47 39 36 24 26
22 22 22 46 38 34 22 25
26 23 20 45 38 33 21 24
29 24 21 44 37 33 21 24
28 26 22 44 37 34 22 26
22 25 22 43 36 33 21 26
13 21 21 40 33 32 20 24
9 18 21 39 31 31 18 23
17 21 20 37 29 29 16 22
25 26 22 38 30 30 17 22
25 27 22 38 30 29 17 21
21 23 21 36 28 27 16 19
18 20 21 35 27 25 16 18
18 20 22 35 27 24 16 18
17 19 22 34 26 22 14 16
13 15 19 30 22 18 10 13
9 13 20 28 21 18 10 13
14 19 24 31 24 21 13 17
22 26 26 33 24 20 13 18
20 25 27 32 23 19 12 17
16 23 28 33 23 20 12 16
18 24 29 33 23 20 12 17
19 21 27 30 20 17 10 14
14 14 25 26 17 13 7 9
9 10 22 24 16 10 5 6
8 10 23 24 17 11 6 6
7 10 24 24 17 12 6 6
6 8 25 25 18 13 6 7
5 7 26 26 18 13 6 7
5 8 25 24 16 10 3 5
5 8 25 23 14 8 2 3
5 8 25 22 13 7 0 3
7 8 25 21 13 6 -3 2
6 7 24 20 12 5 -4 1
3 7 25 20 13 5 -5 1
0 7 25 20 14 6 -4 1
-2 7 25 19 14 7 -3 0
0 3 23 18 12 6 -5 -2
3 -2 21 17 10 5 -7 -4
6 2 22 18 10 5 -7 -5
5 4 26 20 12 7 -4 -2
1 3 27 20 12 7 -4 1
0 4 26 18 13 6 -4 0
0 6 27 18 13 6 -5 -3
-6 3 26 16 11 4 -7 -6
-8 0 24 14 9 2 -9 -8
-2 2 23 13 8 1 -10 -8
4 2 23 13 8 0 -9 -6
2 -2 21 12 7 -2 -10 -6
2 -2 22 13 7 -2 -9 -6
4 1 24 16 9 1 -7 -5
4 0 25 17 10 2 -7 -5
5 -2 26 17 10 3 -8 -5
7 1 26 16 11 3 -8 -5
3 -3 24 13 8 0 -10 -6
-5 -9 22 11 6 -3 -12 -8
-6 -7 22 10 5 -5 -13 -8
-2 -2 25 13 7 0 -9 -5
3 2 27 16 10 2 -7 -3
5 2 26 16 9 0 -8 -4
2 0 25 15 8 -2 -9 -5
-6 -5 25 16 9 -2 -9 -5
-9 -9 25 15 9 -3 -10 -6
-5 -7 24 14 8 -4 -11 -7
2 -3 25 14 9 -3 -10 -6
1 -4 24 13 8 -4 -11 -6
-4 -6 24 14 8 -5 -11 -6
-2 -3 26 15 9 -4 -10 -5
2 -2 24 14 8 -4 -11 -6
-2 -6 24 14 7 -4 -12 -6
-4 -5 24 15 7 -5 -11 -6
-2 0 25 16 9 -4 -10 -7
-2 -3 24 15 9 -4 -10 -7
-4 -6 23 14 9 -4 -10 -7
-3 -4 25 17 12 0 -7 -4
1 2 27 18 14 1 -6 -3
-2 0 25 17 13 -2 -8 -5
-8 -7 24 16 11 -3 -9 -6
-10 -8 23 15 9 -5 -10 -7
-8 -5 24 15 8 -5 -9 -6
-2 2 25 18 10 -4 -7 -4
4 4 26 20 13 -2 -7 -4
3 0 23 16 10 -4 -10 -7
-4 -7 21 13 8 -7 -12 -9
-7 -8 22 13 9 -6 -11 -7
-6 -4 22 14 10 -5 -9 -6
-4 -4 22 14 9 -5 -9 -6
-4 -3 20 12 7 -8 -11 -8
-3 1 21 14 8 -7 -10 -7
1 4 24 17 10 -3 -6 -4
-2 2 25 19 12 0 -4 -2
-9 -4 24 17 12 -2 -5 -3
-10 -6 21 14 11 -3 -6 -5
-4 -3 20 13 9 -5 -7 -5
5 1 19 11 8 -6 -8 -6
7 1 17 9 6 -8 -10 -8
4 0 16 9 7 -8 -10 -8
5 2 18 11 8 -6 -8 -6
9 6 21 13 10 -3 -5 -2
8 7 21 13 9 -3 -5 0
0 2 20 13 7 -4 -6 -2
-4 0 20 12 7 -5 -6 -3
1 2 19 12 9 -5 -6 -3
3 4 19 12 10 -4 -5 -3
1 4 20 13 12 -3 -4 -4
1 3 18 12 10 -4 -5 -4
1 1 16 10 8 -6 -6 -4
-2 -3 14 7 5 -7 -8 -6
-4 -4 13 7 4 -7 -8 -7
0 1 14 8 5 -7 -8 -6
4 5 17 10 6 -5 -7 -6
4 5 18 11 6 -5 -7 -6
5 5 17 10 5 -6 -6 -5
6 6 18 10 5 -5 -5 -3
4 5 17 10 6 -5 -5 -4
0 1 15 9 6 -6 -7 -5
1 -2 15 8 5 -7 -7 -5
4 0 14 6 2 -9 -9 -6
0 -4 15 6 2 -9 -9 -5
-3 -7 14 4 1 -10 -10 -7
7 2 18 8 4 -6 -6 -4
15 10 19 9 5 -4 -3 -2
6 2 16 6 3 -7 -5 -3
-6 -7 11 2 -2 -12 -9 -7
-5 -5 13 4 1 -10 -8 -6
-4 -2 14 6 3 -7 -6 -5
-8 -6 14 5 2 -9 -6 -5
-6 -6 13 4 0 -10 -7 -7
4 0 14 4 0 -9 -7 -6
8 3 15 5 0 -8 -6 -5
5 2 15 4 0 -10 -7 -5
0 0 16 5 1 -9 -6 -4
-2 -2 17 5 2 -9 -6 -4
0 -3 16 5 2 -8 -6 -4
-2 -4 14 3 1 -10 -7 -6
-4 -6 12 1 -2 -12 -9 -7
-4 -7 11 -3 -4 -12 -10 -8
-5 -6 11 -2 -4 -12 -11 -10
-6 -3 13 2 -3 -10 -8 -9
-4 0 16 4 -2 -9 -6 -6
-4 0 16 3 -3 -10 -7 -5
0 2 15 2 -4 -12 -9 -6
4 5 16 2 -4 -12 -10 -6
4 2 15 1 -4 -13 -10 -7
0 -7 13 -2 -5 -13 -11 -9
-2 -8 12 -2 -4 -12 -10 -9
3 -3 13 0 -4 -11 -8 -6
4 0 13 0 -5 -11 -8 -5
-3 -4 13 0 -5 -11 -8 -5
-5 -5 13 0 -4 -11 -8 -6
2 -4 13 0 -5 -12 -9 -6
4 -5 12 -3 -6 -14 -10 -8
2 -6 11 -4 -7 -15 -11 -9
0 -6 10 -5 -7 -15 -11 -9
0 -5 10 -4 -8 -14 -12 -10
0 -3 9 -4 -8 -14 -12 -8
3 2 11 -2 -6 -12 -9 -5
3 2 11 -2 -5 -11 -8 -4
-3 -4 9 -3 -8 -14 -10 -6
-6 -9 9 -5 -11 -16 -12 -7
-4 -9 8 -6 -13 -17 -13 -9
2 -6 8 -5 -9 -15 -12 -9
5 0 9 -4 -7 -14 -11 -9
2 1 9 -3 -7 -14 -10 -9
-4 -2 8 -5 -8 -16 -11 -11
-4 -2 8 -4 -7 -14 -10 -9
1 3 9 -3 -5 -12 -9 -7
2 4 9 -2 -4 -10 -7 -5
-3 2 10 0 -3 -10 -6 -4
-6 1 10 0 -4 -11 -6 -3
-3 3 10 0 -5 -11 -6 -2
3 5 10 -2 -5 -11 -6 -2
3 4 8 -4 -6 -13 -8 -5
-2 2 7 -5 -6 -13 -8 -6
-3 4 7 -5 -6 -12 -7 -6
-2 6 7 -4 -4 -10 -6 -5
-3 8 8 -2 -2 -8 -4 -3
0 10 7 -2 -3 -9 -5 -3
3 10 6 -3 -4 -10 -5 -4
4 10 6 -2 -3 -10 -4 -4
4 13 6 -2 -3 -9 -4 -3
-2 9 4 -4 -4 -9 -5 -4
-10 1 2 -6 -7 -13 -9 -8
-6 4 3 -6 -7 -13 -10 -9
10 16 3 -5 -4 -11 -7 -7
15 22 1 -6 -3 -9 -5 -4
6 20 0 -7 -3 -8 -3 -2
2 19 -3 -8 -4 -8 -2 1
6 20 -4 -8 -4 -7 0 2
10 22 -3 -7 -3 -6 -2 2
12 24 0 -4 0 -5 0 1
11 25 2 -3 2 -3 2 3
6 22 0 -5 0 -5 2 4
2 16 -4 -6 -2 -6 2 5
6 16 -7 -9 -3 -7 1 5
15 20 -8 -10 -3 -6 1 5
16 20 -8 -11 -4 -7 1 3
13 17 -10 -13 -5 -8 0 2
11 18 -10 -14 -5 -8 -2 1
12 20 -10 -13 -6 -8 0 2
12 20 -9 -12 -6 -7 1 4
14 18 -9 -12 -7 -7 1 4
12 14 -8 -13 -9 -10 0 4
7 8 -6 -12 -8 -10 -2 3
6 6 -4 -10 -6 -9 -3 2
7 7 -4 -11 -7 -10 -4 0
6 4 -4 -13 -9 -12 -6 -4
4 1 -4 -12 -10 -14 -9 -6
2 -2 -3 -12 -10 -15 -11 -8
1 -3 0 -11 -10 -15 -11 -9
1 0 0 -11 -10 -14 -10 -10
2 3 2 -10 -9 -13 -9 -9
-2 0 2 -10 -10 -13 -9 -8
-7 -8 1 -11 -12 -14 -11 -9
-10 -12 -2 -14 -14 -16 -13 -12
-8 -13 -3 -16 -15 -18 -14 -13
-5 -9 0 -13 -13 -16 -12 -11
-4 -8 1 -13 -12 -16 -12 -10
-7 -11 0 -14 -14 -16 -12 -11
-10 -13 -2 -14 -14 -18 -14 -13
-6 -10 0 -13 -14 -16 -13 -12
-2 -8 1 -13 -14 -17 -13 -11
-5 -9 2 -12 -13 -15 -12 -9
-10 -10 1 -13 -13 -15 -12 -10
-15 -13 2 -14 -14 -14 -12 -9
-15 -17 0 -16 -16 -17 -14 -11
-10 -17 -3 -17 -17 -17 -15 -13
-4 -13 0 -15 -15 -15 -14 -12
0 -9 0 -15 -15 -16 -14 -12
0 -8 2 -13 -13 -14 -13 -11
-5 -9 2 -12 -13 -14 -13 -11
-8 -10 0 -14 -14 -14 -14 -12
-2 -8 -2 -13 -15 -14 -14 -13
6 -5 1 -14 -15 -13 -13 -12
5 -9 2 -14 -15 -14 -13 -12
-2 -13 1 -14 -15 -15 -14 -14
-5 -12 4 -10 -13 -16 -15 -15
-5 -10 8 -3 -8 -15 -17 -17
-5 -10 13 7 2 -12 -17 -18
-2 -9 20 18 15 -3 -14 -17
5 -7 25 29 28 12 -8 -15
11 -8 25 36 38 25 2 -12
14 -13 22 42 48 43 11 -8
17 -10 24 53 66 69 28 2
27 3 26 70 93 104 53 16
37 11 20 77 114 139 79 33
48 18 4 65 123 173 109 52
64 33 -17 43 128 212 144 76
85 50 -39 15 126 252 179 99
99 60 -63 -19 114 290 212 119
109 67 -86 -57 97 326 243 137
119 73 -99 -80 87 359 270 151
125 70 -103 -89 87 383 282 155
120 52 -98 -89 89 386 276 147
112 26 -92 -90 82 363 252 128
103 0 -87 -94 67 323 210 97
88 -24 -80 -98 44 268 158 63
66 -38 -73 -105 12 201 108 35
44 -35 -71 -118 -26 130 69 20
22 -22 -77 -140 -72 54 34 9
7 -10 -81 -158 -115 -16 1 -4
-8 1 -79 -169 -143 -69 -27 -13
-19 13 -79 -174 -157 -106 -47 -20
-26 19 -75 -166 -155 -118 -52 -21
-31 17 -69 -152 -143 -114 -50 -22
-32 11 -63 -134 -126 -103 -45 -21
-24 9 -56 -111 -104 -91 -37 -18
-14 8 -46 -89 -83 -80 -32 -16
-12 1 -34 -70 -68 -73 -29 -17
-12 -7 -26 -59 -59 -71 -30 -20
-10 -8 -20 -48 -50 -68 -29 -20
-9 -8 -14 -37 -39 -65 -26 -18
-11 -9 -11 -31 -34 -64 -25 -18
-14 -9 -8 -28 -31 -63 -23 -17
-13 -8 -5 -26 -28 -62 -22 -16
-10 -4 -2 -22 -22 -57 -18 -13
-5 -2 2 -19 -19 -49 -17 -12
-4 -5 4 -16 -19 -46 -16 -13
-9 -10 3 -15 -20 -48 -18 -15
-8 -9 4 -13 -19 -49 -18 -14
-2 -8 6 -12 -18 -51 -20 -15
-2 -10 6 -11 -19 -52 -22 -16
-6 -13 6 -11 -19 -51 -21 -17
-6 -11 8 -9 -17 -49 -19 -14
-5 -11 7 -10 -16 -49 -20 -15
-7 -13 6 -10 -16 -48 -21 -17
-5 -12 9 -9 -14 -46 -19 -15
-5 -9 10 -7 -14 -44 -17 -14
-8 -10 10 -6 -14 -45 -18 -14
-8 -12 9 -7 -16 -47 -20 -16
-6 -13 9 -7 -17 -50 -21 -17
-7 -13 10 -7 -17 -51 -22 -17
-8 -13 10 -6 -17 -51 -22 -17
-9 -13 11 -4 -14 -48 -19 -15
-7 -9 11 -3 -13 -45 -17 -13
-5 -6 13 0 -11 -41 -14 -10
-8 -9 13 1 -12 -41 -14 -10
-12 -15 10 -3 -15 -44 -18 -14
-10 -15 11 -2 -16 -46 -19 -14
-3 -10 12 0 -16 -47 -20 -13
-3 -10 14 3 -15 -46 -19 -12
-6 -11 16 6 -13 -44 -17 -11
-8 -12 15 5 -13 -45 -17 -11
-10 -16 14 4 -14 -46 -17 -12
-11 -16 13 5 -13 -45 -16 -11
-8 -10 16 9 -11 -40 -12 -8
-5 -5 18 11 -9 -37 -10 -6
-9 -6 18 11 -10 -37 -10 -6
-12 -9 15 9 -13 -41 -13 -8
-10 -10 15 11 -12 -41 -13 -9
-6 -9 17 13 -11 -41 -13 -9
-5 -9 16 13 -11 -43 -13 -9
-5 -12 15 12 -12 -44 -15 -11
-7 -14 12 10 -14 -46 -19 -14
-9 -14 11 9 -14 -46 -20 -15
-9 -13 12 10 -13 -43 -18 -13
-9 -9 16 13 -10 -39 -15 -11
-8 -7 18 15 -8 -36 -13 -9
-4 -7 17 16 -9 -36 -13 -10
2 -6 18 17 -8 -36 -13 -9
4 -4 19 19 -7 -36 -12 -7
2 -4 20 21 -6 -36 -11 -4
2 0 20 22 -6 -35 -12 -4
4 0 18 21 -7 -35 -12 -6
0 -8 14 17 -10 -39 -15 -9
-6 -15 9 12 -13 -44 -18 -12
-6 -14 10 14 -13 -39 -16 -10
-5 -9 15 19 -9 -34 -13 -7
-3 -8 15 20 -8 -33 -13 -7
-5 -11 13 19 -11 -36 -15 -10
-9 -14 12 20 -11 -37 -17 -12
-6 -9 16 25 -6 -33 -15 -9
4 0 18 29 -3 -29 -13 -7
7 -2 18 30 0 -27 -12 -8
1 -8 16 28 0 -29 -13 -9
-6 -10 13 26 -3 -30 -13 -10
-5 -9 12 25 -4 -29 -13 -9
-2 -8 11 25 -6 -30 -13 -10
-2 -6 12 29 -4 -29 -11 -8
-3 -4 13 32 -2 -28 -10 -8
-4 -4 14 34 1 -27 -10 -7
-3 -3 13 34 1 -27 -11 -8
1 2 15 38 5 -23 -7 -4
5 6 15 40 6 -21 -6 -3
6 5 14 40 7 -21 -6 -3
2 3 13 40 7 -21 -6 -4
-5 0 12 40 7 -19 -6 -4
-6 -5 11 39 6 -19 -6 -5
-3 -5 10 40 6 -19 -7 -6
-3 -5 13 47 10 -17 -4 -3
-3 -5 15 51 14 -15 -3 -2
0 -3 15 52 15 -15 -4 -3
3 0 16 55 18 -13 -2 -2
2 0 17 56 19 -12 0 1
-2 0 16 54 19 -11 1 2
2 2 14 53 18 -10 3 2
9 4 12 53 17 -9 3 2
12 2 10 53 17 -8 3 2
11 3 9 55 19 -6 4 4
11 7 12 59 23 -2 8 8
11 9 13 60 25 0 9 9
12 7 11 59 24 -2 7 7
15 7 8 58 23 -2 6 5
13 5 8 58 25 1 7 4
5 -3 6 56 24 2 7 5
6 -2 4 55 24 4 9 7
19 11 5 56 26 8 12 10
22 16 6 58 27 11 15 12
15 11 5 58 26 11 17 13
13 9 2 57 24 11 16 13
18 12 2 57 24 11 16 14
20 11 0 55 24 10 16 14
17 9 0 55 25 12 17 14
17 10 0 55 25 14 18 14
19 13 1 54 25 16 19 16
17 15 -2 53 24 17 20 16
11 13 -4 50 22 17 19 15
11 11 -5 48 19 15 18 13
17 16 -4 49 19 16 20 16
21 22 -2 52 20 17 21 18
22 26 2 54 21 19 23 20
18 22 0 51 19 16 22 18
15 14 -3 47 17 14 19 16
16 10 -4 46 16 13 18 17
18 13 -4 45 15 13 18 17
19 17 -6 42 13 13 19 17
23 20 -7 39 11 12 19 17
25 23 -4 42 12 15 20 19
19 21 -3 42 12 14 18 17
8 13 -3 39 10 11 17 16
2 8 -4 37 6 8 14 13
4 8 -4 36 3 5 12 11
6 9 -5 35 1 2 10 10
6 10 -4 34 2 3 10 10
5 12 0 35 6 6 12 12
8 13 1 35 6 7 13 11
11 14 0 33 3 5 10 7
8 11 -2 31 1 4 9 6
4 7 0 29 -3 2 8 6
5 6 0 26 -7 -2 6 4
5 6 1 27 -6 -4 5 4
2 6 2 29 -5 -4 4 4
0 5 2 29 -5 -4 4 5
0 4 2 26 -7 -6 2 3
1 3 1 23 -8 -8 0 1
2 4 2 24 -7 -6 0 0
6 7 3 24 -7 -5 0 -2
9 7 3 23 -9 -5 0 -2
4 2 2 21 -11 -8 -4 -4
-5 -5 0 19 -15 -12 -7 -8
-7 -7 1 21 -14 -11 -8 -8
-5 -3 5 24 -11 -9 -5 -4
1 3 7 24 -10 -8 -4 -3
-2 2 6 22 -11 -9 -5 -5
-6 -4 5 19 -13 -11 -8 -7
-5 -2 6 19 -11 -10 -6 -5
2 5 6 20 -11 -9 -6 -5
5 6 6 20 -12 -9 -6 -6
4 4 6 21 -13 -10 -7 -7
-2 0 5 20 -14 -10 -7 -7
-9 -5 5 20 -15 -12 -10 -8
-12 -10 3 17 -18 -15 -12 -11
-11 -13 2 16 -19 -16 -13 -13
-9 -11 4 17 -17 -14 -12 -11
-5 -7 6 18 -15 -12 -10 -9
-5 -8 6 16 -15 -11 -10 -10
-10 -11 3 13 -18 -14 -13 -13
-11 -11 5 15 -17 -13 -12 -12
-8 -8 7 17 -15 -11 -11 -9
-5 -9 8 18 -16 -12 -11 -9
-5 -12 6 17 -19 -15 -13 -12
-6 -14 5 16 -20 -17 -16 -13
-6 -13 7 19 -18 -16 -14 -12
-6 -10 8 20 -15 -15 -13 -11
-6 -8 10 22 -13 -12 -11 -9
-6 -6 10 21 -14 -12 -12 -10
-8 -8 8 19 -16 -14 -13 -11
-9 -10 8 18 -18 -16 -14 -12
-7 -9 10 19 -17 -15 -13 -11
-5 -8 11 22 -16 -14 -13 -11
-6 -11 11 22 -18 -15 -14 -11
-10 -14 9 20 -20 -17 -16 -13
-14 -14 11 21 -17 -16 -13 -11
-17 -14 12 22 -16 -16 -13 -11
-15 -13 11 21 -17 -17 -15 -12
-10 -10 10 19 -18 -18 -17 -15
-9 -8 13 21 -15 -15 -14 -12
-9 -7 14 22 -15 -15 -13 -10
-9 -8 17 25 -13 -12 -10 -7
-4 -7 17 25 -14 -13 -10 -8
-6 -9 15 24 -14 -14 -13 -10
-11 -12 12 21 -17 -17 -15 -12
-11 -14 12 21 -17 -17 -15 -12
-10 -14 11 19 -19 -18 -16 -14
-15 -15 11 19 -18 -17 -15 -13
-13 -13 12 20 -16 -16 -13 -11
-6 -8 14 22 -13 -13 -11 -8
1 -5 15 22 -13 -12 -10 -8
0 -4 15 22 -13 -11 -10 -7
-2 -5 14 22 -14 -12 -11 -8
-6 -7 15 23 -14 -13 -12 -9
-10 -9 15 23 -13 -14 -12 -9
-11 -11 14 23 -12 -13 -12 -10
-12 -13 11 21 -14 -15 -14 -10
-13 -17 9 19 -16 -16 -14 -11
-11 -15 10 18 -14 -14 -12 -10
-6 -10 11 18 -14 -13 -11 -9
-4 -9 11 18 -15 -13 -12 -10
-9 -9 12 20 -13 -12 -11 -8
-10 -9 13 20 -14 -13 -11 -8
-5 -9 12 19 -15 -14 -12 -8
-2 -10 11 17 -15 -16 -13 -9
-4 -9 11 19 -14 -14 -12 -7
-6 -7 11 21 -12 -11 -10 -6
-7 -4 13 22 -10 -9 -8 -5
-4 0 14 22 -8 -6 -6 -4
-4 -2 13 20 -10 -5 -6 -5
-9 -9 10 17 -13 -8 -8 -7
-9 -9 8 16 -13 -9 -8 -7
-4 -3 11 19 -11 -7 -5 -3
-5 0 12 21 -10 -7 -4 1
-9 -5 11 20 -10 -7 -5 0
-7 -6 10 19 -10 -7 -6 -3
0 -4 9 18 -9 -8 -6 -3
0 -5 7 15 -12 -10 -8 -4
-6 -9 6 14 -13 -9 -7 -4
-8 -9 6 13 -13 -8 -7 -4
-8 -8 5 12 -14 -9 -8 -6
-8 -9 6 13 -13 -8 -8 -7
-8 -9 6 13 -13 -9 -8 -7
-6 -8 7 14 -12 -9 -7 -5
-5 -6 7 14 -12 -9 -7 -3
-9 -8 7 14 -12 -9 -6 -2
-10 -9 6 13 -12 -10 -6 -2
-8 -7 6 13 -11 -9 -5 0
-8 -7 5 12 -12 -7 -4 0
-10 -8 6 12 -11 -5 -3 1
-8 -5 6 12 -10 -4 -4 1
-9 -4 5 12 -10 -5 -5 0
-14 -8 5 12 -11 -6 -5 -2
-13 -9 5 12 -12 -6 -5 -3
-5 -5 5 12 -11 -5 -5 -3
2 -3 5 12 -10 -5 -4 -3
1 -3 3 11 -11 -6 -4 -2
-4 -5 2 10 -10 -6 -4 0
-6 -8 0 8 -12 -8 -6 -3
-7 -10 -2 6 -14 -9 -8 -5
-6 -9 -2 5 -15 -9 -8 -5
-6 -8 1 6 -14 -8 -7 -4
-7 -8 0 6 -14 -9 -7 -4
-11 -10 0 5 -16 -11 -9 -6
-15 -14 -2 5 -16 -12 -9 -7
-12 -13 0 5 -15 -12 -10 -8
-4 -6 1 6 -13 -10 -8 -6
0 -3 3 7 -12 -8 -6 -4
-4 -6 2 6 -12 -8 -5 -4
-4 -7 2 6 -12 -7 -4 -3
-4 -7 2 5 -12 -7 -4 -2
-9 -9 0 4 -14 -9 -6 -3
-14 -11 0 2 -16 -11 -9 -6
-13 -11 1 4 -15 -11 -8 -6
-10 -9 2 5 -13 -10 -8 -5
-10 -10 1 3 -14 -12 -10 -8
-12 -13 0 2 -15 -12 -11 -9
-13 -15 1 3 -14 -11 -10 -8
-10 -12 2 3 -12 -9 -9 -7
-6 -9 3 3 -12 -8 -8 -5
-6 -8 3 2 -13 -9 -8 -5
-10 -9 2 1 -13 -11 -9 -7
-11 -9 2 0 -14 -12 -9 -7
-10 -8 3 2 -14 -12 -9 -7
-7 -7 3 2 -14 -12 -9 -7
-6 -4 3 3 -14 -11 -8 -7
-6 -5 5 5 -10 -7 -6 -5
-10 -9 1 1 -12 -9 -8 -8
-13 -13 0 -3 -12 -10 -9 -10
-12 -10 2 1 -11 -7 -7 -7
-9 -8 6 4 -9 -6 -4 -2
-9 -11 3 0 -13 -12 -8 -5
-13 -16 0 -5 -17 -17 -11 -7
-12 -13 1 -4 -16 -16 -10 -6
-6 -4 3 2 -13 -13 -6 -2
-7 0 6 5 -9 -9 -4 1
-10 -4 5 4 -9 -10 -6 0
-7 -6 0 0 -12 -13 -11 -4
-6 -7 -2 -2 -13 -13 -11 -6
-8 -4 2 1 -10 -9 -7 -4
-10 2 4 3 -7 -7 -5 -2
-12 3 3 3 -7 -8 -6 -3
-13 0 4 3 -8 -7 -5 -2
-9 3 4 4 -8 -7 -5 0
-5 4 5 6 -5 -5 -3 2
-9 1 4 5 -5 -6 -4 1
-10 0 4 4 -5 -5 -4 2
-9 6 5 4 -4 -4 -3 3
-10 7 5 5 -3 -4 -2 3
-10 5 3 3 -5 -4 -2 2
-6 4 2 2 -6 -5 -3 1
-4 4 0 1 -7 -6 -3 0
-8 1 2 3 -6 -5 -3 0
-10 0 2 3 -6 -6 -4 0
-8 0 1 2 -6 -8 -6 -3
-5 5 -3 0 -6 -8 -5 -2
-3 16 1 2 -2 -3 1 6
2 25 2 3 2 2 4 10
2 23 -3 -3 -2 0 3 8
-4 13 -7 -6 -7 -4 0 4
-6 11 -5 -5 -6 -4 0 4
-2 15 -4 -2 -3 -2 2 6
2 17 -4 0 0 0 2 6
2 16 -6 0 0 0 2 6
1 16 -7 -2 0 0 2 7
3 17 -7 -2 0 1 4 9
3 16 -7 -4 -2 0 3 8
2 14 -8 -6 -3 0 3 8
3 15 -8 -8 -3 1 3 9
2 14 -11 -10 -6 -3 1 7
-4 8 -10 -10 -8 -4 1 6
-6 6 -7 -7 -6 -3 3 8
-3 9 -5 -4 -4 0 5 9
0 7 -6 -5 -5 -3 3 6
-2 3 -5 -5 -5 -5 -2 3
0 5 -2 -3 -3 -4 -3 2
-4 5 0 -3 -2 -4 -3 2
-9 -3 -2 -5 -4 -8 -7 -3
-11 -8 -2 -7 -7 -11 -11 -8
-9 -6 1 -5 -7 -11 -12 -9
-7 -3 2 -4 -5 -10 -10 -7
-11 -5 5 -2 -3 -7 -7 -4
-14 -6 5 -3 -4 -7 -6 -2
-15 -7 5 -4 -7 -10 -8 -3
-14 -10 3 -6 -10 -16 -11 -7
-10 -12 3 -6 -10 -16 -12 -8
-8 -11 4 -5 -8 -14 -11 -7
-9 -11 4 -5 -7 -12 -11 -6
-9 -11 4 -6 -7 -13 -12 -7
-10 -10 3 -7 -8 -14 -12 -9
-11 -10 3 -8 -9 -14 -12 -9
-11 -9 5 -7 -9 -13 -11 -7
-12 -9 6 -6 -9 -13 -11 -7
-16 -12 6 -6 -10 -14 -12 -7
-17 -13 5 -7 -10 -15 -14 -8
-13 -11 5 -7 -8 -14 -13 -9
-10 -10 6 -6 -6 -13 -12 -8
-10 -10 7 -6 -6 -12 -12 -8
-15 -9 8 -6 -5 -11 -11 -7
-13 -7 10 -5 -3 -10 -9 -6
-6 -3 11 -4 -2 -9 -8 -5
-8 -5 10 -5 -4 -10 -9 -5
-17 -14 6 -7 -7 -12 -11 -8
-19 -20 3 -10 -10 -16 -16 -12
-15 -20 3 -10 -10 -17 -17 -13
-16 -17 5 -7 -8 -16 -17 -11
-16 -13 10 -3 -4 -15 -16 -10
-13 -10 15 5 2 -14 -16 -11
-16 -13 20 12 10 -11 -16 -14
-21 -18 24 22 20 -5 -15 -16
-17 -16 29 32 31 7 -10 -14
-8 -10 32 42 45 22 0 -8
1 -9 34 50 57 40 13 -2
8 -9 36 62 74 64 29 7
17 -5 36 77 97 93 49 18
29 9 33 92 122 129 75 36
46 25 21 90 140 169 107 58
65 38 1 68 146 207 141 80
80 47 -26 35 144 244 171 98
89 54 -52 0 134 281 201 116
98 63 -72 -36 118 319 234 136
111 71 -88 -65 105 353 264 153
118 71 -94 -77 103 379 280 160
115 58 -92 -80 105 387 278 153
112 38 -86 -81 101 376 260 137
107 15 -76 -81 91 348 225 113
89 -14 -71 -85 70 299 175 79
64 -39 -68 -94 37 232 119 46
45 -39 -66 -107 -2 161 76 23
27 -23 -68 -128 -45 91 44 13
0 -13 -71 -146 -88 23 13 5
-25 -8 -73 -158 -122 -35 -19 -8
-30 10 -69 -161 -141 -74 -38 -15
-25 25 -64 -156 -143 -92 -47 -16
-29 20 -59 -144 -133 -92 -48 -18
-32 9 -54 -126 -116 -80 -43 -18
-25 5 -46 -103 -94 -66 -36 -15
-20 2 -37 -81 -73 -55 -32 -14
-20 -4 -28 -64 -58 -48 -30 -16
-18 -4 -17 -49 -45 -41 -27 -16
-16 -3 -8 -36 -35 -37 -24 -15
-18 -5 -3 -26 -28 -34 -22 -14
-20 -6 1 -20 -23 -31 -20 -13
-19 -4 3 -16 -19 -29 -20 -12
-16 -2 6 -13 -15 -27 -19 -12
-16 -4 9 -10 -12 -25 -19 -12
-16 -6 12 -6 -8 -21 -17 -10
-10 -3 15 -3 -4 -19 -16 -10
-3 3 18 0 -4 -20 -16 -10
-9 0 18 2 -5 -22 -16 -10
-19 -13 15 0 -9 -27 -21 -13
-21 -18 13 -2 -11 -31 -24 -16
-14 -15 15 2 -8 -29 -22 -14
-10 -14 17 5 -4 -26 -19 -12
-10 -15 18 6 -2 -24 -18 -11
-13 -14 16 5 -2 -24 -19 -11
-15 -11 18 6 -2 -23 -18 -10
-13 -9 20 8 1 -21 -17 -9
-5 -4 21 9 1 -20 -16 -9
-2 -2 22 10 2 -19 -17 -9
-8 -7 21 10 1 -20 -17 -9
-15 -12 18 8 -2 -24 -20 -13
-16 -17 17 8 -3 -26 -21 -14
-16 -17 18 10 -3 -24 -21 -14
-14 -12 19 11 1 -23 -19 -12
-11 -7 19 12 3 -21 -16 -11
-8 -5 18 11 2 -20 -16 -12
-7 -4 18 12 3 -18 -15 -11
-8 -4 18 12 3 -19 -15 -12
-11 -9 17 10 1 -21 -17 -14
-13 -12 17 11 0 -22 -18 -14
-11 -9 19 13 1 -21 -17 -11
-8 -6 23 19 7 -17 -13 -7
-8 -8 22 20 7 -18 -13 -9
-12 -12 16 15 3 -22 -18 -14
-16 -12 15 13 3 -22 -17 -14
-13 -5 18 15 6 -18 -13 -9
-11 0 20 17 7 -16 -12 -7
-11 -4 19 15 6 -17 -13 -7
-10 -7 19 15 4 -19 -14 -8
-7 -7 20 16 4 -20 -14 -8
-3 -6 19 17 5 -20 -15 -9
-5 -7 19 17 6 -20 -14 -9
-10 -9 18 17 5 -21 -15 -11
-12 -9 18 17 5 -21 -16 -12
-10 -7 19 17 7 -19 -14 -11
-13 -9 18 16 7 -18 -14 -11
-15 -10 16 16 7 -18 -14 -11
-12 -9 16 16 6 -19 -14 -10
-5 -5 17 18 6 -19 -13 -9
2 0 18 19 5 -20 -14 -10
2 0 18 20 6 -20 -14 -10
-4 -5 19 21 8 -18 -13 -9
-10 -9 18 20 7 -19 -14 -9
-16 -11 17 20 8 -19 -15 -10
-13 -10 17 21 10 -18 -14 -11
-8 -7 17 22 11 -16 -13 -10
-5 -4 15 21 10 -17 -15 -11
-8 -5 16 23 10 -15 -14 -10
-10 -4 19 25 12 -13 -10 -9
-6 0 20 26 13 -13 -10 -9
-2 3 20 26 12 -14 -12 -9
-6 -2 19 27 12 -15 -13 -9
-10 -3 19 27 13 -14 -12 -8
-5 3 20 30 17 -11 -10 -7
-6 3 18 29 17 -12 -11 -9
-17 -7 15 26 14 -13 -12 -10
-18 -9 15 26 13 -12 -13 -11
-8 -4 15 27 15 -12 -13 -10
-2 -5 13 26 13 -14 -14 -12
-3 -5 14 28 15 -13 -13 -11
2 3 17 33 19 -9 -9 -8
6 10 20 37 23 -6 -6 -5
5 9 18 36 23 -7 -7 -6
-2 4 17 35 24 -6 -8 -7
-5 2 16 35 25 -6 -8 -8
-5 1 17 36 27 -2 -7 -7
-5 0 17 37 28 0 -6 -6
-2 1 16 37 27 -2 -5 -5
4 5 16 38 28 0 -4 -3
4 7 18 42 30 2 -2 1
-2 6 19 45 33 3 0 2
-3 5 20 46 35 6 2 3
1 7 20 48 37 8 3 4
4 10 19 48 38 8 3 4
3 8 15 46 37 7 1 0
1 2 13 45 37 7 0 -3
3 4 14 46 38 9 1 -3
9 10 17 47 40 12 4 0
10 9 15 46 39 13 5 0
4 3 12 45 37 11 3 -2
4 4 13 47 38 11 4 0
11 13 15 50 43 15 9 4
15 17 15 52 46 19 12 8
13 15 12 52 46 20 12 8
12 15 10 51 46 21 12 7
14 17 9 50 45 22 13 9
15 18 10 50 47 25 17 12
14 16 9 48 46 26 17 13
12 14 7 46 44 25 16 12
11 15 6 46 43 25 17 12
13 17 7 48 45 26 19 13
14 19 6 49 45 27 20 14
14 20 5 48 45 28 20 14
12 21 5 49 47 30 21 17
10 19 4 46 45 29 21 16
14 19 1 42 42 27 20 14
24 27 0 38 38 26 19 13
26 32 1 38 37 26 20 15
16 25 2 39 37 28 22 16
12 20 1 38 36 28 22 16
21 26 1 38 37 29 22 17
27 30 3 39 38 30 24 19
24 27 4 38 38 29 23 19
19 24 2 35 35 26 20 17
15 20 0 32 32 25 19 15
11 18 -3 30 29 23 19 14
11 19 -2 28 28 23 19 14
16 21 -2 26 27 22 18 13
17 20 -3 25 25 20 17 13
13 18 -2 25 24 20 17 13
9 16 1 27 25 19 17 13
7 15 2 27 24 18 15 12
7 17 3 27 26 19 16 13
12 24 6 29 28 21 18 15
15 26 7 28 27 21 17 13
7 18 4 23 22 17 12 7
-5 11 1 18 18 12 7 2
-3 14 2 19 18 12 7 2
3 17 4 20 17 13 8 4
1 15 5 19 17 11 7 4
1 11 5 18 16 9 5 1
4 9 4 17 15 7 2 -3
7 10 5 17 15 7 1 -3
8 13 7 18 17 9 3 0
6 12 6 16 17 9 4 1
2 7 4 13 13 6 2 0
0 5 3 11 11 4 0 -3
3 9 5 11 12 6 2 -2
4 11 6 11 12 6 1 -2
1 8 6 12 10 5 -2 -3
-6 2 6 11 9 3 -4 -5
-11 -4 4 8 8 1 -6 -8
-11 -6 4 7 7 0 -7 -9
-10 -3 4 6 7 0 -8 -10
-6 2 5 7 8 0 -7 -10
0 7 5 8 9 1 -5 -9
1 8 8 8 10 3 -4 -8
-5 2 6 5 6 1 -7 -11
-8 -2 5 4 4 0 -8 -11
-7 1 8 6 6 2 -7 -11
-7 2 9 7 7 2 -7 -10
-8 1 9 7 7 1 -9 -11
-5 5 9 8 8 2 -8 -9
1 10 12 10 11 4 -5 -7
-2 4 10 8 8 2 -5 -8
-9 -7 4 3 3 -4 -10 -12
-11 -8 3 0 1 -5 -12 -13
-10 -4 5 1 2 -4 -10 -11
-11 -3 7 4 2 -4 -9 -9
-10 -3 8 4 2 -4 -9 -10
-10 -5 7 2 1 -6 -10 -12
-11 -9 4 0 -4 -10 -13 -15
-10 -10 3 0 -3 -10 -14 -16
-5 -7 5 2 0 -8 -13 -15
-3 -3 6 3 2 -6 -12 -13
-3 -2 8 4 4 -4 -11 -12
-3 -2 9 4 5 -3 -10 -11
-3 1 8 5 4 -3 -9 -10
-7 -2 7 5 3 -4 -9 -10
-10 -6 6 2 1 -7 -12 -11
-10 -6 7 3 1 -8 -13 -11
-8 -4 9 6 3 -8 -12 -10
-8 -7 8 5 2 -9 -13 -12
-10 -8 7 4 1 -10 -13 -13
-7 -4 8 6 3 -7 -11 -10
-3 1 8 6 4 -6 -11 -11
-4 -3 6 4 2 -8 -13 -13
-9 -8 7 4 2 -9 -13 -14
-10 -8 8 4 2 -9 -13 -14
-5 -3 10 6 2 -8 -12 -12
-3 0 9 6 2 -10 -13 -13
-8 -7 8 5 1 -12 -14 -14
-12 -11 6 2 -2 -14 -16 -16
-10 -9 6 2 0 -14 -15 -15
-8 -8 6 3 2 -12 -15 -14
-10 -5 8 4 2 -11 -15 -13
-10 1 10 6 4 -7 -13 -11
-6 4 11 7 6 -5 -10 -9
-7 0 10 6 4 -6 -11 -10
-9 -7 7 3 0 -10 -14 -13
-6 -7 5 2 0 -11 -14 -14
-3 -4 6 3 1 -10 -13 -13
-4 -4 7 4 4 -8 -12 -11
-5 -5 6 3 2 -10 -14 -12
-6 -6 6 2 1 -12 -14 -13
-8 -7 4 1 0 -12 -15 -14
-9 -8 3 0 -2 -12 -16 -16
-7 -6 2 0 -2 -12 -16 -15
-3 1 5 3 2 -10 -13 -12
-6 2 8 6 4 -7 -10 -8
-11 -4 7 5 3 -8 -11 -9
-11 -7 6 5 3 -8 -12 -9
-6 -3 8 6 5 -6 -11 -9
-2 2 9 6 5 -7 -11 -9
-2 2 6 4 3 -9 -12 -11
0 3 4 3 2 -8 -11 -10
4 7 4 1 1 -8 -11 -9
2 8 5 2 1 -7 -9 -8
-2 5 5 2 1 -8 -9 -8
2 3 5 2 0 -10 -10 -9
1 1 5 2 0 -9 -10 -9
-7 -6 4 3 1 -8 -9 -9
-11 -8 3 1 0 -8 -10 -9
-5 -3 3 1 1 -7 -10 -9
2 3 3 2 2 -6 -8 -8
-2 2 4 2 1 -6 -8 -8
-5 1 3 1 0 -7 -9 -8
1 5 3 1 -2 -8 -10 -8
6 7 3 1 -2 -8 -10 -9
1 3 3 2 -2 -8 -10 -10
-5 -2 4 2 0 -8 -9 -10
-2 3 5 3 1 -6 -8 -8
3 6 6 4 2 -5 -7 -6
0 4 4 2 0 -7 -10 -8
-8 0 2 1 0 -8 -10 -8
-11 -5 2 0 -2 -8 -10 -8
-10 -6 1 -3 -4 -9 -11 -9
-9 -6 1 -2 -5 -9 -11 -9
-9 -6 2 0 -5 -9 -10 -9
-8 -5 2 0 -5 -10 -10 -9
-4 -3 4 1 -3 -9 -9 -7
1 0 4 0 -3 -9 -9 -6
0 -3 3 -2 -5 -10 -10 -8
-3 -4 0 -5 -6 -12 -12 -10
-4 -5 -2 -5 -6 -11 -12 -9
-5 -5 1 -4 -5 -10 -12 -9
-7 -4 3 0 -3 -6 -9 -7
-10 -2 4 0 -2 -6 -8 -6
-7 1 3 -3 -3 -8 -9 -7
1 6 3 -2 -3 -8 -9 -7
6 8 4 1 -2 -7 -9 -8
5 2 1 -3 -6 -11 -13 -12
1 -6 -2 -6 -9 -14 -15 -13
-3 -5 1 -5 -6 -11 -12 -10
-3 -2 1 -4 -5 -10 -10 -8
-3 -2 0 -6 -7 -11 -10 -9
-3 -4 0 -6 -8 -12 -11 -10
-3 -3 1 -5 -7 -11 -12 -10
-3 -2 3 -4 -7 -10 -10 -10
-3 -2 4 -4 -7 -10 -9 -9
-3 -2 3 -4 -9 -13 -11 -9
0 -3 1 -6 -10 -15 -13 -9
1 -3 1 -4 -8 -14 -12 -9
-5 -3 2 -3 -6 -12 -11 -7
-9 -5 2 -5 -7 -12 -11 -7
-4 -4 1 -7 -10 -12 -12 -8
2 0 1 -7 -8 -11 -11 -8
-4 -2 1 -7 -8 -11 -10 -8
-10 -8 0 -8 -11 -13 -12 -8
-7 -9 -3 -10 -14 -16 -15 -10
-3 -9 -3 -10 -13 -16 -14 -10
-6 -9 -2 -8 -12 -15 -13 -9
-10 -9 0 -8 -11 -14 -12 -9
-6 -6 1 -7 -11 -14 -13 -9
0 -2 1 -7 -10 -14 -13 -9
-3 -3 2 -7 -9 -13 -13 -9
-6 -6 0 -9 -11 -15 -14 -10
-6 -3 -2 -9 -12 -15 -14 -10
-2 2 0 -8 -11 -15 -13 -8
1 1 0 -7 -11 -14 -13 -7
-2 -5 -2 -8 -12 -15 -13 -8
-9 -7 0 -6 -11 -14 -11 -6
-12 -4 2 -4 -9 -12 -10 -5
-8 3 3 -3 -7 -10 -10 -3
-6 6 3 -4 -7 -10 -10 -4
-6 5 3 -4 -8 -11 -10 -6
-3 5 2 -5 -8 -12 -11 -7
0 7 1 -5 -8 -12 -11 -6
-5 5 1 -4 -8 -11 -10 -6
-7 -2 1 -4 -8 -10 -11 -7
-4 0 1 -4 -8 -10 -10 -7
3 8 3 -2 -5 -9 -8 -5
7 12 6 0 -3 -7 -7 -4
6 9 4 -2 -5 -7 -9 -5
1 2 0 -5 -9 -10 -11 -6
-5 0 0 -5 -8 -9 -11 -6
-5 4 1 -4 -5 -7 -8 -4
0 10 2 -3 -4 -6 -7 -3
3 15 3 -2 -3 -6 -7 -3
3 15 1 -4 -5 -9 -7 -3
-2 12 -3 -6 -8 -10 -7 -3
-2 12 -5 -7 -9 -9 -8 -3
6 18 -5 -6 -8 -8 -6 0
13 24 -4 -7 -7 -6 -3 2
12 23 -4 -6 -5 -4 -2 3
7 16 -5 -7 -5 -5 -4 1
6 14 -6 -8 -6 -6 -5 0
8 19 -5 -6 -5 -4 -4 3
8 21 -4 -5 -4 -3 -3 5
8 20 -6 -7 -6 -5 -4 4
12 18 -8 -10 -9 -7 -4 4
15 18 -10 -11 -10 -7 -4 4
10 17 -9 -9 -9 -6 -3 5
4 13 -10 -11 -9 -7 -5 5
4 9 -12 -14 -13 -10 -7 2
9 10 -13 -16 -14 -11 -8 0
15 15 -10 -14 -11 -7 -5 3
16 18 -7 -10 -7 -4 -2 6
9 13 -5 -9 -7 -4 -2 5
2 7 -5 -10 -9 -7 -4 2
2 6 -5 -10 -11 -9 -8 -2
3 6 -4 -11 -12 -10 -10 -3
1 0 -3 -12 -14 -14 -13 -6
0 -6 -3 -11 -14 -14 -15 -7
1 -5 1 -9 -11 -12 -13 -6
-2 -4 1 -10 -11 -12 -13 -7
-8 -9 0 -11 -13 -14 -14 -8
-10 -10 -4 -13 -16 -15 -16 -11
-7 -7 -2 -11 -14 -14 -13 -9
-4 -5 -2 -11 -15 -15 -15 -9
-6 -9 -2 -10 -14 -15 -15 -9
-7 -11 -2 -11 -16 -17 -16 -10
-5 -11 -2 -11 -16 -17 -17 -10
-4 -10 -2 -11 -15 -16 -16 -10
-7 -11 -2 -11 -16 -18 -18 -11
-10 -14 -3 -13 -17 -19 -19 -12
-9 -14 -3 -13 -18 -19 -18 -13
0 -9 -4 -13 -18 -18 -18 -13
7 -5 -2 -12 -18 -17 -18 -11
5 -7 -2 -11 -18 -17 -17 -10
-4 -10 0 -10 -16 -15 -15 -9
-8 -11 0 -9 -14 -14 -15 -8
-5 -9 1 -7 -12 -12 -14 -8
-5 -10 0 -8 -12 -12 -15 -9
-10 -13 -2 -9 -13 -13 -16 -10
-10 -13 -3 -11 -15 -15 -17 -10
-2 -9 0 -10 -15 -14 -15 -9
2 -6 0 -10 -16 -16 -16 -9
-7 -12 -2 -12 -17 -18 -17 -10
-12 -17 -3 -13 -19 -20 -18 -11
-9 -15 1 -10 -17 -20 -18 -11
-2 -11 6 -3 -11 -17 -18 -10
2 -9 13 8 -2 -12 -15 -10
1 -10 19 18 10 -5 -15 -11
0 -13 24 30 22 6 -11 -9
4 -12 24 36 31 17 -5 -9
10 -10 22 42 40 32 5 -5
15 -10 22 51 56 55 19 4
22 -7 25 67 79 84 38 15
35 5 25 84 105 118 65 31
49 16 15 86 123 155 94 49
56 25 -5 68 132 193 125 67
65 36 -27 40 135 233 157 88
85 51 -52 9 130 273 192 110
105 61 -75 -30 114 310 224 130
116 67 -95 -66 98 345 252 146
123 69 -105 -83 92 372 272 156
131 63 -106 -90 92 383 274 153
127 43 -101 -91 90 370 259 139
113 14 -93 -91 79 342 228 114
98 -14 -87 -92 63 297 183 85
84 -34 -79 -96 37 235 131 53
68 -39 -74 -106 4 165 86 30
52 -25 -76 -126 -39 93 50 17
30 -8 -79 -145 -85 23 19 8
2 -3 -80 -160 -120 -38 -12 -5
-25 0 -85 -174 -148 -89 -40 -16
-33 10 -85 -176 -159 -116 -55 -21
-25 18 -77 -161 -151 -119 -54 -20
-19 12 -69 -141 -133 -110 -49 -19
-18 3 -62 -118 -113 -99 -41 -18
-17 -3 -55 -96 -93 -89 -36 -17
-18 -9 -45 -74 -73 -80 -33 -16
-15 -11 -33 -58 -60 -74 -30 -16
-8 -6 -22 -44 -48 -68 -25 -12
-4 0 -15 -33 -38 -64 -22 -9
-9 -2 -10 -27 -31 -62 -20 -8
-11 -5 -9 -25 -29 -63 -21 -9
-9 -5 -6 -22 -25 -62 -21 -9
-8 -4 -3 -19 -23 -63 -20 -10
-10 -5 0 -15 -20 -62 -18 -9
-9 -7 1 -12 -19 -63 -19 -10
-4 -9 2 -11 -19 -65 -20 -12
-3 -10 3 -11 -19 -66 -20 -12
-6 -13 4 -9 -18 -65 -21 -11
-7 -13 4 -8 -16 -59 -21 -11
-9 -14 5 -6 -15 -56 -20 -11
-13 -18 5 -5 -15 -56 -21 -11
-14 -18 5 -6 -14 -57 -22 -12
-10 -12 6 -6 -12 -55 -19 -10
-5 -7 7 -4 -11 -52 -16 -10
-3 -8 7 -3 -10 -51 -16 -10
-3 -10 6 -4 -12 -53 -19 -11
-9 -12 7 -3 -12 -53 -19 -11
-14 -12 8 1 -11 -52 -18 -9
-10 -11 8 1 -12 -54 -19 -10
-4 -11 8 0 -11 -54 -19 -10
-6 -12 8 -2 -12 -54 -19 -10
-9 -12 8 -2 -12 -54 -19 -11
-5 -9 10 1 -9 -50 -16 -9
-2 -9 11 2 -7 -48 -14 -8
-5 -10 9 2 -9 -49 -15 -9
-7 -12 7 1 -12 -51 -18 -11
-5 -13 7 1 -11 -52 -18 -12
-4 -14 7 2 -12 -52 -17 -11
-7 -13 8 3 -12 -52 -17 -10
-8 -10 10 5 -10 -50 -15 -9
-9 -10 11 6 -8 -48 -13 -8
-10 -10 10 6 -6 -48 -13 -8
-9 -10 10 5 -6 -49 -14 -8
-7 -10 10 5 -7 -48 -15 -8
-8 -9 9 6 -7 -47 -15 -9
-10 -9 9 7 -8 -47 -15 -10
-6 -9 9 8 -9 -46 -16 -10
0 -7 10 9 -8 -46 -15 -9
-2 -9 10 8 -8 -47 -14 -7
-7 -14 9 6 -10 -50 -14 -8
-9 -15 10 7 -9 -51 -14 -7
-7 -11 12 11 -5 -48 -12 -5
1 -7 12 10 -4 -47 -13 -7
5 -4 12 9 -6 -46 -12 -6
1 -6 12 9 -7 -45 -11 -4
-7 -10 11 10 -7 -45 -12 -4
-8 -10 11 10 -8 -45 -12 -5
-3 -5 12 12 -6 -43 -11 -4
0 0 13 13 -4 -43 -10 -3
-3 -4 10 11 -6 -45 -13 -5
-6 -8 10 10 -6 -45 -13 -5
-4 -7 11 11 -4 -44 -12 -5
-2 -6 12 11 -2 -41 -11 -4
-4 -7 11 10 -3 -43 -12 -5
-7 -9 9 9 -5 -43 -13 -6
-7 -8 11 12 -2 -39 -11 -4
-5 -3 15 16 2 -36 -8 0
-3 0 14 17 1 -37 -8 0
0 -3 12 15 0 -39 -10 -4
0 -3 12 15 0 -39 -10 -4
-4 -4 14 16 2 -37 -9 -3
-8 -8 12 15 1 -37 -10 -4
-10 -8 12 16 2 -36 -10 -4
-8 -6 13 17 4 -34 -8 -4
-6 -7 12 18 4 -34 -9 -4
-5 -8 12 19 5 -32 -9 -3
-4 -6 13 22 6 -30 -7 0
-4 -3 15 24 8 -29 -6 1
-4 -3 14 24 8 -30 -7 0
-3 -3 13 23 8 -31 -9 -3
-2 -2 14 24 11 -30 -8 -3
-3 1 15 26 13 -27 -5 1
-5 0 15 27 14 -26 -4 2
-6 -3 15 27 15 -24 -3 3
-2 2 15 29 16 -23 -3 3
3 5 15 31 16 -23 -3 2
7 4 13 30 14 -25 -5 -2
10 2 12 30 14 -25 -6 -2
8 3 13 32 17 -23 -5 2
7 6 15 34 20 -22 -2 3
10 6 16 36 22 -21 1 3
11 5 16 36 23 -19 2 4
8 6 16 37 25 -17 3 5
8 8 15 38 26 -15 4 5
12 10 13 39 27 -14 4 6
12 10 14 40 28 -12 6 8
8 8 14 42 28 -11 7 9
9 7 13 44 28 -12 8 10
14 11 14 44 29 -11 9 11
20 18 16 46 33 -8 13 14
21 22 18 49 36 -4 17 18
13 15 15 48 36 -2 18 18
4 6 9 43 32 -5 15 14
7 6 9 40 30 -4 15 14
13 15 11 44 33 1 17 18
10 15 11 45 33 1 19 20
5 7 8 43 31 1 18 19
10 9 6 40 29 1 16 18
18 17 8 43 32 4 19 22
18 20 8 43 33 5 21 23
16 18 6 39 30 3 19 22
19 18 3 36 27 1 18 20
19 19 3 35 27 2 20 21
14 19 4 36 29 6 23 24
16 20 5 37 29 8 24 25
24 23 4 37 29 8 25 26
26 24 4 36 28 9 26 26
23 24 5 36 27 9 26 26
22 25 6 37 27 9 27 28
23 24 6 36 27 10 27 28
21 21 5 34 25 9 26 27
21 20 4 32 23 8 24 26
20 21 4 31 22 6 25 26
19 19 4 28 20 5 24 25
17 21 5 28 20 5 23 24
17 25 7 29 21 7 24 26
16 26 7 28 19 5 23 25
12 21 6 25 15 1 20 22
9 19 5 23 13 -3 18 20
10 21 6 24 14 -2 19 22
12 23 6 23 14 0 20 22
11 22 6 22 14 0 19 21
9 20 6 21 14 -2 17 20
11 18 7 21 13 -3 16 18
14 16 7 20 11 -4 14 16
14 13 9 20 10 -4 13 16
13 13 9 20 9 -5 11 15
14 15 9 19 8 -6 10 13
10 13 10 18 8 -7 9 12
4 9 8 17 6 -9 7 11
1 7 9 16 6 -9 6 10
3 9 10 15 7 -8 6 9
2 10 11 16 8 -7 7 9
-2 7 12 16 9 -7 7 7
0 6 12 14 7 -9 4 5
1 7 11 13 4 -11 3 4
-2 7 12 14 3 -11 4 4
-4 7 12 13 1 -12 2 3
-4 7 13 13 1 -12 1 2
-6 6 13 14 2 -12 2 3
-8 4 13 14 2 -11 3 4
-6 3 12 11 1 -13 1 4
-4 3 12 11 2 -13 1 5
-2 4 14 11 3 -11 1 5
2 4 14 10 3 -11 0 3
-2 1 12 9 1 -13 -3 1
-8 -3 11 9 1 -15 -4 0
-8 0 12 10 1 -14 -3 1
-6 3 13 10 0 -14 -3 2
-9 -2 13 9 -4 -15 -3 2
-10 -8 11 6 -7 -18 -7 -3
-8 -6 11 6 -6 -18 -9 -4
-5 0 12 7 -3 -17 -7 -2
-5 1 12 7 -3 -15 -6 0
-4 -2 12 6 -5 -16 -7 0
-3 -3 10 5 -6 -17 -7 0
-5 -5 10 6 -5 -16 -6 0
-7 -4 13 8 -3 -14 -4 1
-6 -2 15 10 0 -13 -3 3
-5 -3 14 9 1 -13 -4 2
-9 -9 12 7 -2 -14 -6 -2
-13 -12 8 3 -7 -18 -10 -5
-9 -9 8 2 -8 -19 -11 -4
2 -2 10 3 -6 -19 -10 -3
5 1 11 4 -4 -18 -10 -3
-2 -4 10 5 -5 -18 -11 -5
-7 -6 10 4 -6 -18 -11 -5
-8 -6 11 5 -5 -17 -9 -4
-9 -6 11 6 -5 -18 -9 -4
-10 -7 12 7 -4 -18 -9 -4
-10 -9 11 7 -4 -19 -10 -5
-10 -9 11 6 -4 -18 -10 -6
-9 -7 12 7 -2 -17 -9 -5
-10 -5 12 9 0 -15 -8 -3
-12 -7 11 9 -3 -15 -8 -3
-10 -6 9 7 -5 -17 -10 -5
-4 -6 8 4 -8 -22 -14 -8
-4 -8 8 4 -9 -23 -15 -8
-8 -8 9 5 -8 -23 -14 -7
-11 -8 10 6 -6 -22 -12 -6
-13 -8 11 6 -5 -21 -13 -6
-14 -10 10 5 -5 -21 -13 -7
-15 -13 8 4 -6 -21 -14 -7
-10 -9 9 4 -6 -20 -12 -7
-3 1 14 8 -2 -16 -9 0
-2 5 16 11 2 -13 -5 4
-5 1 14 10 0 -15 -6 2
-9 -6 10 6 -6 -19 -11 -3
-10 -7 10 6 -7 -20 -12 -4
-9 -6 10 6 -5 -20 -12 -3
-6 -4 10 6 -5 -19 -12 -2
-3 1 12 8 -2 -18 -9 1
1 4 13 9 2 -16 -7 2
0 1 13 8 1 -16 -7 1
-6 -6 11 7 -3 -17 -9 -2
-11 -9 7 4 -6 -20 -12 -6
-12 -8 8 5 -5 -19 -11 -5
-10 -6 10 6 -4 -18 -10 -3
-10 -6 10 6 -4 -19 -10 -3
-10 -6 10 5 -4 -19 -10 -2
-8 -7 9 6 -3 -18 -9 1
-10 -4 9 6 -3 -17 -7 2
-12 -2 9 5 -3 -16 -7 3
-14 -2 8 5 -3 -15 -7 3
-15 -2 9 7 0 -13 -5 4
-11 2 11 7 0 -12 -6 4
-6 4 10 6 0 -13 -6 2
-4 0 7 3 -5 -16 -9 -2
-8 -3 8 4 -5 -16 -8 0
-9 0 8 4 -3 -14 -6 2
-4 3 8 5 -2 -12 -5 3
-2 3 7 5 -2 -14 -5 3
-7 -2 7 4 -3 -14 -6 3
-10 -7 5 1 -6 -15 -9 0
-9 -9 3 0 -8 -15 -10 -4
-7 -4 7 4 -4 -13 -6 -2
-4 4 10 7 0 -10 -4 2
-3 7 11 8 1 -9 -4 4
-8 1 9 7 0 -10 -4 4
-13 -7 5 2 -6 -14 -8 -2
-10 -8 3 0 -7 -16 -10 -3
-6 -4 3 0 -7 -16 -9 -3
-6 0 4 1 -6 -14 -8 -2
-7 1 6 2 -5 -11 -6 0
-5 5 8 4 -3 -9 -3 3
0 10 9 5 -3 -9 -2 4
-2 9 7 5 -4 -11 -3 4
-6 3 4 2 -8 -14 -7 2
-9 -5 3 0 -10 -16 -9 0
-10 -8 2 -3 -11 -18 -11 -3
-10 -6 2 -3 -10 -17 -11 -3
-6 0 3 -2 -9 -16 -10 -2
0 3 3 -2 -8 -14 -8 0
-3 1 2 -3 -8 -14 -8 -2
-10 -4 3 -2 -8 -14 -8 -2
-11 -5 2 -3 -9 -15 -9 -3
-7 -3 3 0 -8 -13 -8 0
-4 -3 4 1 -8 -12 -7 2
-7 -6 4 0 -10 -14 -8 0
-10 -6 3 -3 -10 -15 -10 -3
-10 -4 4 -2 -8 -14 -8 0
-10 -5 4 -2 -8 -14 -7 0
-13 -8 2 -3 -9 -14 -8 -3
-12 -5 5 0 -6 -12 -6 1
-7 2 9 4 -3 -8 -2 5
2 7 9 5 -2 -7 0 5
6 7 4 1 -8 -12 -7 0
-3 -2 2 -3 -10 -15 -9 -3
-14 -9 1 -5 -12 -17 -12 -6
-15 -9 1 -6 -13 -18 -13 -7
-10 -3 2 -5 -12 -17 -13 -6
-6 1 2 -5 -11 -18 -14 -7
-7 -2 2 -5 -11 -17 -13 -6
-9 -4 1 -6 -12 -16 -13 -6
-11 -6 2 -6 -12 -15 -12 -6
-14 -9 1 -5 -12 -15 -12 -6
-12 -9 1 -5 -11 -14 -12 -5
-8 -8 4 -3 -10 -13 -10 -2
-8 -9 4 -4 -11 -13 -10 -2
-13 -13 1 -7 -14 -18 -14 -6
-18 -15 -2 -9 -15 -19 -16 -8
-16 -10 0 -8 -12 -16 -14 -7
-8 -2 3 -5 -9 -13 -11 -4
-3 4 5 -3 -7 -11 -9 0
-7 2 5 -3 -8 -11 -9 1
-11 -4 3 -5 -11 -14 -12 -3
-10 -6 0 -8 -14 -16 -14 -7
-8 -7 -2 -9 -16 -18 -15 -8
-8 -6 0 -9 -14 -17 -14 -7
-10 -4 2 -6 -12 -15 -12 -4
-10 -3 2 -5 -10 -14 -11 -2
-4 2 3 -5 -9 -13 -11 0
5 9 4 -4 -8 -11 -9 1
5 10 6 -3 -6 -9 -6 2
-4 6 6 -3 -6 -9 -6 2
-4 7 5 -4 -7 -9 -7 2
3 14 6 -2 -7 -7 -5 4
0 14 6 0 -6 -7 -5 4
-10 8 3 -2 -8 -10 -8 2
-10 6 3 -2 -8 -11 -8 2
1 14 6 1 -6 -8 -6 4
11 19 8 3 -3 -5 -4 5
6 12 8 3 -3 -5 -5 4
-10 1 4 0 -6 -7 -7 3
-19 -3 2 -4 -8 -9 -9 1
-21 0 2 -5 -9 -11 -11 1
-22 4 4 -3 -7 -9 -9 2
-17 10 5 1 -5 -6 -7 3
-7 15 2 -2 -6 -6 -6 4
2 20 0 -5 -7 -6 -5 6
4 24 1 -4 -5 -3 0 9
-2 23 1 -3 -5 -3 1 10
-6 19 0 -4 -6 -4 0 8
2 19 -2 -5 -6 -4 -2 8
10 22 -3 -5 -6 -3 -2 8
11 22 -5 -5 -6 -3 -3 7
5 18 -8 -5 -7 -5 -5 5
1 15 -9 -5 -8 -5 -6 5
1 15 -8 -5 -7 -4 -5 7
3 17 -8 -6 -7 -5 -5 6
7 20 -9 -7 -7 -5 -6 3
5 21 -10 -8 -7 -4 -6 2
-3 15 -11 -10 -10 -5 -6 2
-5 12 -9 -10 -11 -5 -5 3
0 17 -7 -7 -9 -4 -3 6
1 18 -5 -5 -8 -5 -2 8
-4 10 -5 -5 -9 -7 -4 6
-8 4 -5 -5 -10 -7 -5 5
-8 6 -3 -3 -9 -5 -4 6
-3 10 2 0 -8 -5 -4 7
0 9 4 0 -7 -6 -5 6
-8 -2 1 -3 -9 -9 -9 1
-13 -10 -3 -7 -13 -12 -13 -5
-14 -9 -3 -8 -14 -13 -15 -7
-12 -6 0 -7 -13 -12 -14 -6
-10 -6 -2 -8 -14 -13 -15 -8
-10 -8 -3 -8 -15 -14 -17 -9
-10 -8 0 -7 -14 -13 -16 -9
-7 -4 1 -6 -14 -11 -15 -8
-6 -2 0 -7 -14 -12 -15 -8
-10 -3 -3 -9 -16 -14 -17 -10
-10 -8 -3 -9 -17 -15 -18 -10
-12 -11 -3 -10 -18 -15 -18 -9
-17 -11 0 -8 -15 -12 -15 -6
-16 -9 2 -5 -11 -9 -11 -3
-9 -5 5 -2 -10 -7 -10 0
-6 -3 4 -3 -11 -8 -11 -2
-10 -4 2 -5 -13 -10 -13 -3
-10 -6 -2 -9 -16 -13 -17 -8
-10 -9 -3 -10 -18 -14 -19 -10
-15 -13 -2 -9 -16 -12 -17 -8
-17 -12 -2 -9 -15 -12 -16 -7
-13 -8 -2 -9 -15 -11 -16 -8
-10 -3 1 -8 -14 -9 -15 -7
-10 -3 1 -8 -13 -9 -15 -7
-11 -5 -2 -9 -14 -11 -18 -9
-14 -8 -3 -9 -16 -13 -19 -10
-16 -9 -2 -8 -16 -12 -20 -11
-18 -11 1 -5 -13 -12 -19 -12
-19 -13 4 1 -9 -11 -19 -12
-17 -15 9 9 0 -8 -19 -12
-16 -14 14 20 11 0 -17 -12
-16 -13 20 30 24 10 -12 -11
-14 -15 22 37 35 24 -6 -8
-6 -16 23 44 46 42 6 -4
7 -12 24 55 60 63 20 5
18 -4 27 73 85 92 40 16
29 10 25 88 111 128 67 32
44 23 13 87 129 167 97 52
60 32 -11 64 133 201 128 71
71 40 -35 35 132 238 158 91
80 51 -57 4 127 278 191 111
90 60 -79 -33 113 318 225 132
103 68 -96 -66 98 352 256 150
118 73 -102 -79 94 380 276 160
123 67 -101 -81 98 393 278 156
115 42 -98 -83 94 383 259 139
104 9 -92 -86 82 354 224 114
94 -16 -85 -88 63 309 176 84
77 -34 -77 -92 35 246 123 52
55 -40 -73 -103 0 172 79 30
33 -27 -75 -123 -44 97 45 18
12 -11 -78 -143 -86 27 14 8
-9 -3 -81 -158 -122 -36 -18 -6
-21 5 -85 -170 -148 -83 -45 -17
-27 15 -86 -171 -157 -108 -59 -22
-30 18 -76 -155 -145 -105 -57 -20
-29 15 -66 -134 -126 -86 -48 -16
-26 6 -61 -112 -106 -72 -43 -14
-26 -3 -53 -91 -87 -62 -37 -13
-24 -6 -43 -71 -69 -53 -34 -13
-17 -4 -32 -56 -56 -47 -32 -14
-15 -6 -25 -45 -47 -43 -31 -16
-18 -9 -20 -36 -39 -40 -30 -16
-17 -8 -15 -28 -32 -35 -27 -13
-15 -5 -13 -25 -28 -33 -27 -13
-15 -5 -11 -21 -24 -31 -27 -13
-14 -4 -6 -16 -18 -28 -23 -10
-12 -5 -4 -12 -15 -25 -21 -9
-13 -9 -5 -13 -17 -28 -24 -12
-15 -11 -6 -14 -19 -31 -27 -16
-14 -10 -4 -12 -18 -30 -27 -15
-11 -9 0 -9 -15 -27 -25 -13
-10 -7 3 -5 -12 -25 -22 -10
-10 -8 4 -3 -10 -25 -20 -9
-14 -12 2 -4 -10 -26 -22 -12
-17 -19 0 -5 -12 -28 -25 -14
-16 -20 0 -5 -11 -27 -24 -14
-14 -16 2 -5 -9 -24 -22 -12
-14 -16 3 -4 -8 -22 -21 -10
-14 -17 4 -2 -6 -21 -19 -9
-10 -12 6 0 -5 -19 -18 -9
-7 -8 6 1 -5 -20 -19 -9
-11 -10 3 0 -7 -23 -23 -12
-15 -14 3 0 -7 -24 -23 -13
-14 -13 4 2 -6 -22 -21 -12
-6 -6 6 4 -4 -19 -18 -9
1 -2 6 4 -2 -19 -17 -8
-8 -8 4 1 -4 -20 -20 -9
-17 -16 1 -3 -7 -24 -23 -13
-14 -16 1 -3 -8 -24 -23 -14
-8 -12 2 1 -6 -21 -20 -12
-9 -11 3 2 -6 -20 -20 -12
-11 -12 2 3 -6 -20 -20 -11
-10 -11 2 3 -6 -21 -20 -12
-10 -10 2 4 -5 -22 -18 -11
-10 -9 2 3 -6 -23 -19 -11
-10 -9 1 3 -6 -23 -19 -10
-10 -9 2 4 -5 -22 -19 -9
-11 -8 3 4 -4 -20 -18 -9
-11 -9 2 3 -5 -21 -19 -10
-10 -13 1 2 -7 -23 -21 -13
-14 -17 2 4 -6 -22 -22 -12
-14 -15 2 5 -5 -22 -21 -11
-8 -9 2 7 -3 -20 -19 -9
0 -6 1 6 -3 -21 -18 -10
-2 -8 0 6 -3 -20 -18 -9
-7 -11 -2 5 -4 -20 -18 -10
-8 -10 -2 4 -3 -19 -18 -10
-5 -6 1 7 2 -16 -15 -8
-3 -2 3 8 3 -15 -16 -8
-8 -6 3 7 1 -16 -17 -9
-14 -12 2 6 -2 -19 -19 -10
-16 -14 3 8 1 -19 -19 -9
-13 -12 3 8 2 -18 -17 -7
-12 -10 3 9 3 -17 -16 -7
-8 -7 4 11 5 -16 -14 -6
0 -2 4 11 7 -14 -14 -7
3 0 2 9 5 -14 -15 -8
0 -6 -2 5 0 -18 -17 -12
-6 -10 -2 5 0 -18 -18 -12
-7 -8 2 9 5 -14 -14 -9
-7 -3 5 13 8 -11 -13 -6
-10 -6 4 13 8 -12 -13 -8
-14 -12 1 10 5 -15 -17 -11
-10 -11 -2 9 5 -16 -17 -11
-4 -4 2 13 10 -12 -14 -7
-5 -2 1 13 11 -11 -15 -7
-10 -6 1 13 11 -9 -15 -7
-7 -5 2 14 12 -8 -14 -6
0 -2 4 16 14 -6 -11 -4
1 -2 5 18 15 -6 -10 -4
0 -3 3 18 14 -9 -12 -5
1 -4 3 18 14 -10 -13 -8
-3 -6 3 20 16 -8 -13 -8
-8 -9 5 22 20 -4 -11 -5
-10 -9 6 24 21 -3 -10 -3
-4 -5 5 23 20 -3 -10 -3
5 2 5 23 19 -2 -9 -3
6 5 7 27 24 3 -6 0
1 2 7 28 26 4 -6 -2
-4 -2 5 28 25 3 -7 -3
-4 -2 5 28 25 2 -7 -3
0 -2 4 28 25 2 -7 -3
3 0 4 29 27 3 -6 -2
1 -2 4 31 29 5 -4 1
-3 -5 3 32 30 6 -4 2
-2 -4 2 32 31 6 -4 0
3 3 3 34 32 8 -3 2
4 5 5 36 35 12 1 4
2 3 5 37 37 14 2 5
3 4 5 38 38 15 4 6
8 11 6 40 39 17 6 7
15 16 6 42 42 19 8 8
20 15 3 40 42 20 8 7
17 10 0 38 40 19 7 7
15 12 0 38 40 20 8 8
17 18 0 39 43 23 11 10
18 18 -3 38 43 25 12 10
16 14 -4 37 42 25 12 11
16 14 -5 37 42 25 12 11
12 12 -6 36 42 24 12 10
7 8 -7 34 40 25 12 10
12 14 -8 34 40 27 14 13
22 23 -5 37 44 29 18 18
22 24 -5 35 44 30 18 18
16 19 -7 34 43 32 19 17
16 16 -8 33 42 32 20 17
19 16 -9 30 40 31 20 18
21 16 -10 28 38 31 19 17
23 18 -11 28 38 32 20 17
23 19 -11 28 38 32 20 17
20 17 -13 26 35 30 17 16
16 16 -13 25 35 29 17 16
16 18 -12 24 34 27 17 16
16 20 -11 24 34 29 19 17
16 19 -10 24 35 30 20 17
16 18 -10 23 35 30 20 17
17 19 -10 22 33 30 20 18
18 21 -10 19 30 28 19 18
19 22 -10 17 28 26 18 18
19 22 -9 17 27 25 18 17
17 21 -8 17 27 25 16 16
15 19 -9 15 25 22 13 13
12 15 -9 15 23 21 11 11
10 14 -9 15 23 21 11 9
9 16 -7 15 23 22 11 9
8 16 -6 15 26 24 13 11
8 16 -5 14 24 21 13 12
9 17 -4 13 22 19 11 12
6 17 -4 12 21 18 9 10
3 13 -6 8 18 14 5 6
3 11 -5 8 16 12 3 4
6 12 0 10 18 13 5 5
7 11 0 11 18 13 5 5
6 9 -2 10 18 13 4 4
6 9 0 10 19 14 3 4
1 9 2 11 20 15 4 3
-4 8 2 10 20 14 2 2
0 9 2 9 18 12 0 0
4 10 1 8 17 10 -2 -2
2 8 0 6 14 8 -3 -3
-3 2 -2 4 12 6 -5 -4
-3 -2 -3 2 9 4 -7 -6
-2 0 0 4 10 4 -6 -6
-4 1 2 6 12 5 -6 -6
-8 1 3 6 13 6 -5 -4
-10 1 4 6 14 7 -5 -3
-9 2 4 6 14 7 -4 -4
-7 2 3 4 12 5 -7 -6
-6 2 2 3 10 4 -8 -7
-6 0 1 2 8 3 -9 -9
-7 -3 0 1 7 2 -11 -10
-6 -5 1 2 7 1 -11 -10
-6 -7 1 2 7 1 -11 -10
-8 -9 3 4 10 3 -10 -8
-7 -8 2 3 9 2 -11 -10
-7 -6 0 2 7 1 -12 -12
-6 -4 1 2 8 1 -11 -11
-6 -2 3 3 9 3 -9 -10
-8 -3 3 1 8 2 -9 -10
-10 -5 1 -2 6 0 -11 -11
-11 -7 2 -2 6 -2 -12 -11
-10 -7 4 1 7 0 -11 -9
-9 -8 5 3 8 1 -9 -9
-9 -9 3 3 8 0 -11 -9
-7 -8 2 1 8 0 -11 -9
-7 -7 3 1 9 0 -10 -9
-10 -8 3 1 7 -2 -12 -10
-12 -9 0 -4 3 -5 -15 -14
-10 -9 1 -4 3 -5 -15 -13
-8 -6 3 0 4 -3 -13 -11
-8 -5 4 1 5 -3 -13 -11
-11 -7 4 1 5 -3 -13 -12
-15 -9 2 0 5 -4 -13 -13
-15 -9 3 1 6 -3 -13 -11
-12 -9 3 2 7 -2 -13 -10
-8 -9 3 2 7 -2 -12 -10
-6 -10 2 0 5 -4 -13 -12
-6 -9 4 2 6 -4 -13 -11
-6 -6 4 2 6 -3 -13 -11
-8 -3 5 3 7 -3 -12 -10
-10 -4 5 2 5 -5 -13 -11
-15 -9 2 0 3 -8 -16 -14
-16 -13 2 0 3 -8 -15 -15
-10 -12 3 0 4 -7 -14 -13
-4 -8 5 2 7 -4 -13 -10
-2 -4 5 3 8 -4 -12 -10
-5 -6 4 3 9 -3 -11 -9
-10 -9 3 2 7 -4 -12 -9
-14 -11 2 1 5 -5 -13 -11
-14 -10 2 1 5 -5 -13 -11
-8 -6 4 3 7 -3 -12 -9
-7 -6 3 1 6 -5 -13 -10
-12 -9 2 0 4 -8 -13 -12
-13 -8 2 1 5 -7 -12 -11
-10 -3 3 3 6 -5 -10 -9
-10 -6 3 3 7 -3 -9 -9
-13 -12 2 1 6 -4 -11 -10
-13 -14 0 -2 3 -6 -13 -12
-9 -10 2 0 5 -4 -12 -9
-3 -4 4 2 7 -2 -9 -7
-2 0 5 4 8 1 -6 -5
-3 0 4 3 8 0 -7 -6
-5 -4 2 1 6 -3 -9 -8
-7 -7 0 0 4 -4 -10 -9
-7 -6 0 0 4 -4 -9 -8
-6 -2 2 2 7 -3 -6 -4
-7 -2 2 0 5 -4 -7 -4
-10 -7 -2 -4 1 -6 -10 -6
-11 -9 -4 -6 0 -6 -11 -8
-10 -7 0 -2 4 -3 -9 -8
-8 -6 1 0 5 -2 -8 -7
-6 -6 1 0 5 -2 -8 -7
-4 -3 2 1 5 0 -7 -6
-7 -2 3 1 6 0 -7 -5
-12 -7 0 -3 3 -4 -10 -8
-14 -9 -3 -6 0 -7 -11 -10
-10 -5 -2 -6 2 -6 -10 -9
-8 1 0 -4 4 -3 -8 -5
-9 3 0 -3 4 -3 -6 -4
-8 3 0 -3 4 -2 -6 -4
-5 2 -2 -3 3 -2 -7 -6
-5 2 -2 -3 3 -2 -5 -6
-10 0 2 0 5 0 -3 -3
-18 -5 2 0 5 -2 -4 -2
-19 -6 2 -2 5 -2 -5 -3
-14 -7 0 -5 2 -5 -8 -6
-6 -7 -3 -7 -2 -6 -10 -9
-2 -4 -4 -7 -2 -5 -11 -9
-7 -4 -3 -6 0 -3 -9 -8
-11 -7 -2 -6 0 -4 -9 -7
-10 -6 0 -3 1 -3 -8 -5
-7 -2 1 0 3 -2 -6 -3
-4 1 2 -2 2 -4 -6 -3
0 3 2 -2 2 -4 -5 -3
-4 2 0 -4 0 -5 -7 -5
-10 -3 -3 -6 -3 -6 -9 -7
-10 -3 -3 -7 -3 -6 -9 -7
-10 -3 -4 -8 -3 -6 -9 -8
-11 -6 -4 -7 -4 -7 -9 -8
-10 -7 -4 -6 -4 -8 -9 -8
-6 -6 -3 -6 -4 -8 -8 -6
-4 -5 -3 -5 -3 -7 -6 -5
-6 -7 -2 -4 -3 -6 -6 -3
-10 -8 1 -3 -3 -5 -5 1
-14 -9 1 -4 -3 -6 -5 0
-16 -9 0 -6 -5 -7 -6 -4
-13 -7 -4 -9 -8 -10 -9 -6
-6 1 -3 -7 -6 -8 -8 -5
0 6 1 -5 -4 -6 -6 -3
-5 4 2 -4 -4 -6 -6 -4
-9 -4 1 -5 -4 -8 -9 -7
-8 -5 0 -6 -5 -9 -10 -8
-6 -4 -2 -7 -7 -11 -11 -8
-8 -5 -2 -8 -7 -11 -11 -7
-8 -7 -2 -9 -7 -11 -11 -7
-5 -7 -3 -10 -9 -13 -11 -8
-2 -4 -2 -8 -7 -11 -9 -5
-3 -2 2 -5 -3 -7 -4 0
-5 -3 0 -7 -4 -7 -5 -2
-9 -6 -2 -9 -8 -11 -9 -6
-13 -9 -2 -9 -9 -12 -10 -7
-15 -11 -2 -9 -10 -12 -11 -8
-13 -11 -4 -10 -12 -13 -12 -10
-10 -6 -2 -8 -9 -11 -11 -8
-5 4 2 -5 -5 -7 -7 -5
-3 6 2 -4 -3 -5 -6 -4
-7 3 2 -4 -3 -4 -6 -3
-10 1 0 -6 -5 -6 -8 -5
-10 3 1 -6 -5 -6 -8 -5
-7 5 2 -5 -5 -6 -6 -4
-5 8 3 -3 -4 -5 -5 -2
-9 9 3 -3 -4 -6 -5 -2
-12 4 1 -4 -5 -7 -7 -4
-10 0 0 -5 -5 -8 -9 -6
-8 3 -2 -5 -5 -8 -9 -7
-9 6 0 -4 -4 -7 -8 -7
-10 5 2 -2 -3 -5 -6 -5
-10 4 2 -3 -4 -5 -5 -3
-10 4 1 -3 -5 -5 -4 0
-9 4 1 -4 -6 -6 -4 0
-7 6 0 -3 -6 -7 -5 0
-3 10 0 0 -5 -6 -4 1
-2 12 2 1 -3 -5 -3 3
-8 13 5 3 0 -3 0 4
-7 16 3 2 0 -3 0 4
0 21 1 0 0 -2 1 4
2 24 -3 -4 -3 -3 1 4
-5 24 -5 -5 -4 -3 1 4
-10 22 -6 -5 -4 -2 1 3
-10 22 -5 -3 -3 1 2 3
-7 22 -4 -2 -2 2 3 4
-3 20 -5 -2 -2 1 3 4
3 21 -6 -4 -4 -3 2 5
9 25 -7 -5 -6 -6 1 6
11 25 -8 -5 -5 -4 3 8
9 21 -11 -6 -6 -5 2 6
5 17 -12 -9 -8 -7 1 4
1 17 -12 -9 -8 -6 1 4
0 19 -13 -8 -8 -5 2 5
2 20 -12 -8 -8 -4 2 6
4 16 -11 -8 -8 -4 2 6
4 13 -11 -7 -8 -4 2 5
2 11 -10 -6 -8 -5 2 5
0 10 -8 -5 -7 -6 2 5
-3 8 -5 -4 -5 -4 2 5
-7 5 -4 -4 -6 -4 0 4
-10 -2 -4 -6 -9 -8 -5 1
-9 -4 -5 -9 -13 -12 -9 -5
-8 0 -3 -7 -12 -11 -8 -5
-14 -2 0 -5 -10 -10 -7 -5
-22 -9 0 -5 -11 -10 -8 -6
-20 -10 -2 -7 -13 -12 -10 -8
-9 -3 1 -4 -11 -10 -7 -5
0 4 1 -4 -11 -11 -8 -6
-6 -2 -2 -6 -12 -13 -10 -7
-12 -8 -5 -9 -15 -15 -13 -10
-11 -8 -4 -10 -16 -15 -13 -10
-8 -4 -4 -10 -17 -15 -14 -10
-8 -3 -2 -7 -15 -12 -12 -9
-8 -3 1 -6 -14 -11 -12 -8
-12 -7 0 -7 -14 -13 -12 -8
-18 -13 -3 -8 -17 -16 -14 -10
-16 -14 -5 -9 -19 -18 -15 -11
-8 -9 -2 -6 -15 -15 -12 -8
-5 -5 -2 -6 -14 -14 -11 -7
-10 -5 1 -4 -13 -12 -9 -6
-10 -6 0 -6 -14 -13 -11 -7
-10 -7 0 -7 -15 -13 -12 -8
-11 -8 -2 -9 -16 -14 -12 -8
-13 -9 -3 -8 -17 -14 -12 -9
-18 -13 -3 -8 -18 -15 -13 -11
-19 -13 -3 -7 -18 -15 -14 -12
-13 -7 1 -4 -13 -12 -12 -10
-6 1 5 0 -10 -9 -10 -9
-6 -2 3 -2 -11 -11 -12 -11
-12 -9 1 -4 -14 -15 -15 -14
-16 -12 5 0 -11 -14 -15 -13
-18 -14 9 7 -5 -12 -17 -13
-17 -15 14 16 4 -10 -18 -15
-10 -12 19 26 16 -2 -15 -16
-2 -9 22 36 27 12 -9 -13
2 -9 23 45 38 30 3 -7
6 -9 22 52 52 52 17 0
12 -6 24 67 75 80 37 10
20 3 23 82 101 114 62 24
29 12 14 85 119 152 92 43
47 24 -6 67 127 190 125 64
66 42 -29 40 129 230 159 88
85 59 -51 10 126 272 195 110
100 72 -73 -26 113 313 229 132
110 77 -94 -59 98 349 259 148
109 70 -106 -77 91 378 279 157
104 60 -107 -81 93 396 286 158
108 47 -100 -80 94 396 276 149
108 25 -93 -82 87 373 247 127
94 -5 -89 -86 69 332 204 97
73 -30 -85 -90 44 276 152 64
55 -41 -81 -100 9 209 104 37
39 -31 -83 -119 -34 136 65 23
23 -13 -87 -139 -79 63 32 13
3 -2 -87 -153 -117 -4 -2 1
-18 6 -87 -164 -147 -58 -33 -13
-28 17 -87 -168 -158 -90 -52 -21
-29 25 -79 -154 -150 -94 -53 -21
-30 20 -69 -135 -133 -85 -48 -20
-30 10 -65 -116 -116 -74 -45 -21
-24 6 -57 -94 -96 -62 -37 -19
-18 5 -45 -72 -76 -51 -32 -17
-19 2 -34 -57 -63 -45 -31 -18
-20 -2 -25 -44 -53 -39 -28 -17
-14 0 -17 -31 -44 -34 -24 -15
-12 -2 -11 -22 -34 -29 -21 -12
-15 -6 -8 -19 -32 -28 -22 -14
-19 -7 -7 -18 -29 -27 -22 -15
-18 -7 -6 -17 -27 -26 -22 -16
-16 -6 -5 -14 -24 -24 -22 -15
-14 -5 -3 -11 -23 -22 -21 -16
-14 -5 0 -9 -22 -22 -21 -16
-14 -7 0 -9 -23 -24 -21 -16
-12 -8 0 -7 -23 -24 -21 -15
-10 -7 4 -2 -19 -22 -20 -14
-10 -9 4 -2 -18 -23 -22 -15
-14 -15 3 -3 -19 -25 -23 -17
-17 -19 2 -4 -19 -25 -24 -18
-13 -15 3 -2 -16 -22 -21 -16
-7 -9 5 -2 -15 -21 -19 -14
-9 -7 4 -3 -17 -21 -19 -14
-15 -9 3 -4 -19 -23 -21 -16
-14 -7 5 -3 -17 -21 -19 -15
-9 -2 9 3 -14 -18 -15 -11
-8 -4 9 5 -14 -19 -16 -11
-10 -7 8 4 -15 -21 -18 -12
-14 -9 7 3 -16 -22 -19 -13
-17 -11 6 4 -15 -20 -19 -14
-17 -13 4 2 -16 -21 -20 -16
-15 -12 5 2 -15 -19 -19 -15
-13 -8 7 4 -13 -16 -16 -13
-14 -8 7 3 -14 -18 -16 -14
-18 -12 3 -3 -20 -24 -22 -18
-18 -14 1 -4 -21 -26 -25 -20
-13 -12 2 -2 -20 -26 -24 -18
-10 -12 2 0 -19 -27 -23 -18
-12 -14 2 0 -18 -26 -23 -18
-14 -13 2 2 -16 -24 -21 -16
-12 -10 5 3 -13 -22 -18 -13
-7 -7 7 5 -13 -19 -16 -10
-2 0 8 6 -13 -17 -15 -10
-5 0 9 8 -12 -15 -14 -9
-11 -7 7 7 -13 -17 -15 -10
-15 -9 5 5 -15 -20 -17 -12
-11 -7 8 8 -13 -18 -15 -9
-8 -7 9 9 -12 -19 -15 -9
-10 -9 7 7 -13 -21 -17 -12
-12 -12 4 5 -15 -23 -19 -15
-14 -13 4 5 -13 -22 -18 -16
-12 -9 6 6 -12 -19 -17 -14
-12 -5 9 8 -9 -15 -14 -10
-14 -8 7 6 -12 -17 -15 -10
-17 -9 7 6 -12 -18 -15 -10
-16 -7 8 10 -12 -16 -13 -8
-14 -7 8 11 -11 -17 -13 -9
-11 -7 8 12 -10 -17 -14 -10
-6 -5 8 12 -9 -17 -14 -11
-4 -5 6 11 -11 -18 -16 -13
-6 -8 3 8 -12 -19 -17 -15
-8 -9 3 8 -11 -17 -16 -14
-9 -6 5 10 -9 -14 -13 -11
-9 -2 8 14 -6 -10 -11 -8
-7 3 10 16 -4 -9 -9 -6
-4 4 10 16 -4 -9 -9 -6
-7 0 9 17 -5 -10 -11 -7
-10 -6 7 16 -8 -13 -14 -9
-11 -7 7 16 -6 -14 -15 -10
-12 -8 7 16 -4 -14 -14 -9
-11 -6 8 17 -3 -13 -13 -8
-7 -2 8 17 -2 -11 -12 -9
-5 2 8 18 0 -9 -11 -8
-5 -2 7 18 -2 -8 -10 -7
-5 -5 6 16 -5 -11 -13 -9
-4 -6 4 16 -6 -13 -15 -11
-3 -5 6 19 -3 -12 -14 -11
-3 -3 7 22 1 -11 -13 -10
-4 -3 9 25 4 -9 -11 -9
-6 -4 8 25 5 -8 -10 -8
-7 -5 7 24 5 -7 -9 -7
-8 -5 5 23 5 -7 -9 -7
-8 -4 4 23 6 -5 -7 -6
-2 2 5 25 7 -4 -6 -4
4 9 8 29 11 1 -4 0
5 10 11 33 15 4 -2 1
1 5 10 34 15 2 -3 -2
-4 0 9 34 14 0 -5 -3
-5 0 8 33 14 0 -6 -4
-6 0 6 34 15 2 -5 -5
-5 4 8 36 19 6 -2 -2
4 14 9 39 23 10 3 2
10 18 8 38 23 11 4 2
4 11 6 36 21 9 3 2
-4 6 5 35 19 8 2 3
1 9 5 36 20 10 4 5
5 9 6 38 21 11 6 6
3 6 4 40 23 13 7 7
5 8 3 42 25 14 7 7
10 11 4 43 28 17 9 9
13 15 4 43 29 19 10 10
15 19 4 43 30 22 13 12
16 21 2 40 29 24 13 12
14 18 0 38 26 23 12 11
10 15 -3 37 24 22 12 10
9 18 1 39 26 26 15 14
13 23 2 42 27 27 18 16
18 23 -2 39 26 24 16 15
19 20 -3 38 26 24 17 14
16 20 -4 37 27 26 19 15
13 19 -5 36 26 27 19 16
11 18 -6 34 25 28 20 17
12 19 -6 33 24 29 21 18
14 19 -5 33 24 29 21 20
17 19 -4 31 22 28 20 20
19 22 -3 31 22 29 21 20
18 24 -2 32 23 31 23 21
13 21 -4 29 21 28 20 19
8 17 -6 27 18 25 17 16
8 19 -6 27 19 25 18 17
16 27 -7 25 17 25 18 17
25 32 -6 24 17 25 18 17
24 29 -6 22 15 25 17 15
14 22 -6 21 14 25 17 15
8 16 -6 19 11 22 15 15
9 15 -5 19 10 21 15 15
11 16 -4 19 10 21 16 15
10 16 -3 19 10 20 15 16
8 15 -2 18 10 18 13 14
6 14 -4 16 7 16 11 11
7 15 -5 14 5 14 9 9
8 17 -4 14 7 14 8 9
5 17 0 15 8 17 9 10
3 17 2 16 8 18 9 10
4 15 2 15 5 15 7 8
5 13 2 14 3 13 6 6
6 13 2 14 2 11 4 5
7 13 3 14 3 11 3 6
4 11 2 13 3 9 2 4
0 9 1 13 3 9 2 3
1 11 3 13 4 10 2 4
3 13 4 12 3 10 1 3
0 11 4 11 2 10 1 2
-5 7 3 10 0 8 -2 0
-9 3 2 7 -5 4 -5 -4
-10 0 3 8 -5 4 -5 -4
-8 0 4 8 -4 4 -6 -5
-9 1 5 9 -3 2 -7 -5
-11 0 4 7 -4 1 -8 -6
-10 0 5 7 -4 2 -7 -6
-5 3 4 7 -4 2 -8 -8
-3 4 3 5 -6 0 -10 -9
-5 4 4 4 -7 1 -9 -9
-5 7 6 6 -5 4 -7 -6
-5 6 7 7 -5 3 -7 -6
-9 -2 7 7 -6 3 -7 -6
-4 -2 5 6 -8 1 -9 -8
4 2 5 6 -7 0 -9 -7
2 -2 4 5 -7 -2 -10 -7
-6 -7 3 3 -8 -3 -10 -9
-10 -9 2 2 -8 -3 -10 -10
-11 -9 1 0 -8 -2 -11 -11
-10 -8 3 2 -6 2 -9 -10
-5 -4 3 1 -6 1 -9 -10
-5 -4 3 0 -8 -2 -11 -10
-8 -8 2 -3 -11 -4 -13 -12
-7 -9 1 -2 -10 -4 -13 -13
-6 -9 3 1 -7 -4 -13 -12
-9 -10 3 1 -7 -5 -13 -12
-9 -10 3 1 -7 -5 -14 -12
-6 -7 3 2 -6 -4 -14 -12
-8 -7 4 2 -5 -2 -13 -11
-10 -9 3 1 -6 -2 -12 -11
-10 -10 2 -2 -7 -4 -13 -12
-9 -8 5 0 -6 -4 -12 -10
-9 -7 7 3 -6 -4 -13 -10
-12 -9 4 2 -8 -7 -15 -14
-13 -13 1 0 -10 -10 -18 -17
-9 -10 2 2 -7 -8 -17 -14
-2 -4 7 8 0 -3 -12 -9
-3 -3 7 8 1 -3 -10 -9
-8 -7 5 5 -3 -5 -13 -10
-11 -9 4 4 -4 -5 -12 -11
-11 -9 6 5 -3 -3 -11 -9
-10 -8 7 5 -4 -4 -11 -8
-12 -8 6 4 -6 -6 -12 -10
-12 -8 6 6 -5 -6 -12 -9
-9 -7 7 7 -3 -6 -12 -9
-7 -9 5 5 -5 -8 -14 -12
-12 -13 3 4 -6 -10 -16 -14
-16 -13 4 4 -5 -10 -16 -14
-14 -9 5 4 -4 -9 -15 -12
-8 -8 5 3 -5 -8 -14 -12
-6 -7 3 1 -7 -9 -15 -13
-8 -7 4 2 -6 -9 -14 -11
-6 -7 4 1 -6 -10 -14 -11
0 -7 4 2 -6 -10 -15 -11
1 -5 4 3 -5 -10 -15 -11
-2 -3 6 5 -3 -8 -13 -10
-2 -2 5 4 -2 -6 -12 -9
-4 -3 4 5 -2 -6 -11 -9
-8 -5 4 4 -3 -6 -12 -10
-7 -5 3 3 -3 -5 -12 -11
-5 -6 2 3 -4 -7 -13 -11
-6 -9 0 0 -7 -10 -15 -13
-6 -9 0 -2 -8 -11 -15 -12
-6 -6 1 0 -7 -10 -14 -10
-7 -4 2 2 -5 -9 -13 -9
-10 -7 2 2 -4 -8 -12 -9
-14 -10 1 2 -4 -7 -12 -10
-13 -8 2 1 -4 -6 -12 -8
-9 -5 3 2 -3 -5 -11 -8
-5 -2 1 0 -5 -6 -11 -8
-5 0 2 2 -4 -5 -8 -7
-8 -3 3 2 -5 -6 -8 -7
-8 -5 2 1 -7 -8 -10 -10
-9 -4 3 2 -6 -8 -10 -9
-10 -4 3 4 -4 -6 -8 -7
-10 -7 3 2 -4 -6 -8 -6
-7 -8 1 0 -6 -8 -10 -7
-6 -4 0 -2 -7 -9 -10 -6
-8 0 0 -2 -6 -7 -8 -5
-11 0 1 0 -5 -5 -5 -3
-13 1 1 1 -4 -3 -5 0
-13 1 1 2 -4 -4 -5 0
-10 -4 2 2 -4 -5 -5 -2
-2 -5 -3 -3 -7 -9 -9 -6
3 -4 -3 -2 -7 -10 -10 -6
-4 -5 -2 0 -6 -8 -9 -5
-7 -8 -3 -3 -7 -10 -10 -8
-3 -6 -5 -7 -9 -12 -12 -10
2 3 -3 -5 -7 -9 -9 -7
4 7 2 0 -3 -4 -5 -3
-2 1 1 -2 -3 -5 -5 -4
-9 -9 -2 -6 -8 -9 -9 -7
-10 -10 -5 -8 -11 -11 -12 -8
-10 -9 -3 -6 -10 -10 -11 -7
-10 -9 -3 -6 -10 -11 -11 -8
-8 -8 -2 -5 -9 -10 -10 -7
-3 -2 1 -3 -6 -7 -7 -4
-2 1 2 -3 -4 -5 -6 -4
-7 -4 0 -6 -6 -7 -8 -6
-11 -9 -3 -9 -10 -10 -10 -8
-10 -7 -2 -8 -9 -8 -8 -7
-5 -3 -2 -7 -8 -8 -8 -6
-5 0 0 -4 -7 -7 -7 -4
-5 1 2 -2 -5 -7 -6 -2
-3 0 0 -5 -7 -9 -9 -4
-2 -4 -2 -5 -7 -9 -10 -5
-2 -3 -2 -5 -7 -7 -9 -4
-3 -2 -2 -6 -7 -8 -8 -5
-7 -6 -3 -8 -10 -10 -10 -7
-10 -9 -4 -9 -10 -10 -10 -8
-8 -9 -2 -8 -8 -9 -8 -5
-4 -5 -2 -8 -9 -11 -9 -6
-6 -5 0 -7 -10 -10 -9 -6
-8 -8 0 -7 -11 -11 -9 -7
-5 -9 -2 -7 -10 -11 -10 -6
0 -7 -3 -7 -10 -12 -11 -5
-2 -6 -3 -7 -10 -11 -11 -5
-8 -9 -4 -9 -12 -13 -12 -8
-10 -13 -8 -13 -15 -16 -16 -11
-10 -11 -7 -12 -14 -14 -15 -12
-7 -6 -4 -10 -12 -11 -13 -10
-3 -3 -4 -10 -12 -11 -12 -9
-3 -5 -3 -9 -12 -11 -12 -7
-6 -7 -3 -9 -11 -12 -12 -7
-11 -8 0 -8 -11 -12 -12 -6
-15 -11 -3 -9 -12 -14 -12 -6
-13 -13 -4 -11 -15 -16 -13 -7
-4 -6 -4 -11 -14 -16 -11 -5
6 6 0 -7 -9 -11 -7 -2
4 5 0 -7 -8 -10 -6 -2
-8 -5 -3 -9 -11 -11 -8 -5
-13 -9 -4 -9 -12 -12 -9 -6
-10 -5 -3 -8 -11 -10 -9 -5
-4 2 0 -6 -8 -8 -7 -4
3 7 1 -5 -7 -8 -6 -2
2 5 1 -5 -8 -10 -7 0
-2 0 0 -5 -8 -9 -7 0
1 4 1 -4 -5 -5 -4 2
6 10 2 -3 -4 -4 -3 4
1 6 -2 -5 -7 -6 -5 3
-10 -3 -3 -8 -9 -8 -7 -2
-9 1 -3 -7 -8 -7 -5 0
2 12 2 -3 -4 -3 -2 4
6 13 4 1 -2 -2 0 5
0 7 2 -2 -4 -5 -4 2
-4 4 0 -5 -6 -7 -6 0
-2 8 0 -4 -4 -6 -5 1
1 13 1 -3 -2 -4 0 5
-2 15 -2 -5 -2 -4 1 6
-8 11 -7 -10 -6 -6 -2 3
-10 10 -8 -11 -8 -6 -2 3
-3 17 -6 -8 -5 -3 2 6
4 21 -6 -7 -5 -2 2 7
1 15 -7 -7 -5 -3 0 7
3 11 -9 -9 -6 -5 -2 5
9 15 -11 -9 -5 -5 -2 6
10 18 -11 -7 -4 -3 1 9
8 19 -10 -7 -3 -2 4 12
12 20 -12 -10 -5 -4 3 11
19 23 -14 -13 -7 -5 2 9
20 24 -14 -14 -8 -5 2 9
13 20 -14 -14 -8 -5 3 11
4 12 -14 -13 -8 -5 2 10
1 7 -13 -11 -8 -5 2 9
2 7 -12 -10 -7 -5 1 8
2 6 -12 -10 -7 -6 0 7
4 5 -9 -8 -6 -4 0 6
8 5 -7 -8 -6 -5 0 5
6 3 -7 -10 -9 -7 -3 4
1 -2 -7 -12 -11 -10 -6 2
0 -4 -5 -11 -11 -10 -6 1
-4 -7 -3 -10 -10 -10 -6 0
-9 -8 -3 -9 -12 -11 -9 -3
-9 -7 -4 -10 -13 -13 -11 -5
-6 -6 -3 -11 -13 -14 -11 -4
-6 -7 -4 -12 -14 -15 -11 -5
-9 -7 -4 -11 -13 -14 -11 -5
-10 -9 -4 -11 -13 -13 -12 -7
-9 -13 -5 -13 -14 -14 -13 -8
-8 -13 -6 -14 -15 -15 -14 -8
-8 -9 -2 -10 -13 -13 -10 -5
-6 -6 0 -10 -12 -13 -9 -3
-4 -8 -3 -11 -14 -15 -11 -4
-3 -11 -4 -12 -15 -17 -13 -6
-6 -14 -5 -14 -14 -17 -13 -7
-8 -16 -5 -14 -14 -17 -14 -7
-7 -16 -4 -13 -14 -16 -13 -6
-5 -10 -2 -11 -11 -14 -10 -3
-4 -8 0 -11 -10 -12 -8 -2
-4 -12 -3 -13 -14 -14 -11 -5
-8 -20 -6 -16 -15 -16 -12 -7
-11 -21 -7 -16 -15 -17 -13 -7
-8 -12 -4 -14 -13 -15 -12 -5
-2 -5 -2 -11 -12 -14 -10 -3
-2 -7 -2 -11 -12 -15 -11 -4
-7 -13 -4 -13 -13 -17 -13 -8
-9 -15 -6 -15 -15 -18 -16 -11
-9 -12 -4 -13 -13 -18 -16 -13
-10 -10 0 -9 -10 -16 -15 -11
-12 -13 4 -2 -4 -14 -14 -9
-13 -15 10 8 5 -11 -13 -8
-13 -13 15 19 16 -4 -10 -7
-10 -12 20 29 28 7 -6 -6
0 -13 20 36 39 20 3 -3
9 -13 19 44 51 38 15 4
16 -11 21 55 69 63 31 12
26 -5 21 72 95 95 51 23
39 7 15 84 119 132 77 39
50 18 1 76 134 171 108 59
61 30 -20 53 139 211 141 80
77 45 -43 22 139 252 174 102
96 58 -66 -14 131 293 207 122
108 66 -88 -49 117 334 241 142
117 71 -104 -75 107 368 268 156
122 69 -109 -85 109 394 283 162
117 55 -109 -89 108 401 279 154
108 30 -107 -93 101 385 258 136
100 5 -103 -97 88 351 223 111
91 -20 -98 -100 66 302 176 81
74 -39 -94 -108 34 238 126 52
56 -39 -92 -122 -6 167 82 31
35 -24 -93 -139 -49 96 49 21
13 -13 -96 -157 -94 24 14 9
-10 -9 -96 -170 -129 -36 -18 -5
-21 4 -95 -176 -150 -79 -40 -14
-23 18 -87 -168 -150 -96 -49 -15
-21 20 -75 -148 -134 -89 -45 -13
-21 9 -70 -129 -116 -77 -41 -13
-22 -6 -68 -110 -99 -67 -37 -15
-16 -7 -57 -88 -78 -55 -32 -13
-8 1 -39 -65 -57 -43 -25 -9
-9 0 -30 -51 -46 -37 -23 -10
-13 -6 -26 -41 -39 -34 -23 -11
-13 -6 -20 -33 -32 -31 -22 -10
-12 -5 -13 -26 -24 -28 -19 -7
-11 -5 -10 -23 -20 -28 -18 -7
-14 -6 -8 -21 -18 -28 -18 -7
-17 -9 -7 -19 -17 -27 -17 -6
-17 -12 -6 -18 -16 -24 -16 -6
-15 -14 -5 -15 -14 -22 -15 -6
-10 -14 -6 -16 -14 -23 -17 -8
-6 -14 -3 -13 -13 -24 -18 -9
-6 -13 1 -9 -12 -23 -17 -8
-10 -15 3 -7 -11 -24 -17 -7
-11 -18 0 -9 -13 -29 -21 -11
-10 -18 -2 -10 -14 -29 -22 -13
-8 -12 0 -9 -12 -26 -20 -13
-7 -7 4 -5 -7 -22 -15 -9
-6 -4 4 -5 -7 -21 -15 -9
-6 -6 3 -7 -8 -22 -16 -9
-9 -11 0 -9 -11 -24 -18 -10
-10 -15 1 -8 -11 -25 -19 -10
-9 -16 2 -6 -10 -24 -18 -8
-10 -15 3 -5 -9 -25 -19 -9
-15 -17 4 -5 -9 -25 -19 -10
-18 -19 4 -3 -6 -23 -17 -10
-15 -18 2 -4 -7 -24 -18 -11
-8 -14 2 -4 -5 -23 -16 -9
-2 -9 5 -3 -3 -19 -13 -8
-2 -8 5 -3 -3 -19 -13 -7
-8 -10 5 -3 -4 -20 -13 -6
-11 -14 3 -4 -7 -22 -15 -7
-13 -17 3 -2 -7 -22 -15 -8
-10 -17 4 0 -6 -22 -15 -8
-7 -14 4 1 -6 -23 -16 -8
-7 -11 6 3 -4 -21 -14 -7
-9 -10 6 3 -2 -20 -13 -6
-9 -11 6 2 0 -19 -12 -6
-5 -12 6 1 1 -18 -12 -7
-2 -11 4 -2 -3 -20 -14 -9
-4 -9 3 -2 -4 -20 -15 -10
-8 -11 5 1 -4 -20 -15 -9
-8 -13 5 2 -5 -21 -16 -10
-9 -12 5 2 -4 -22 -16 -10
-11 -13 5 3 -2 -21 -15 -10
-13 -16 4 2 -2 -22 -16 -11
-12 -15 2 1 0 -23 -17 -12
-11 -11 4 3 3 -20 -14 -10
-10 -9 5 4 4 -18 -12 -8
-11 -11 4 3 3 -18 -12 -7
-12 -11 3 2 1 -19 -13 -6
-9 -9 5 3 1 -19 -12 -3
-3 -8 5 4 0 -21 -13 -4
-2 -9 4 4 1 -21 -13 -6
-5 -9 5 5 2 -20 -13 -7
-7 -10 6 7 4 -19 -12 -5
-5 -10 5 6 3 -21 -13 -5
-6 -10 3 4 2 -20 -13 -5
-7 -9 1 3 2 -19 -12 -6
-6 -9 2 4 4 -16 -11 -5
-4 -8 4 5 6 -16 -10 -4
-5 -9 6 7 6 -14 -8 -3
-7 -10 5 9 5 -14 -9 -3
-7 -10 6 11 6 -14 -10 -3
-6 -9 9 14 9 -13 -9 -3
-7 -9 9 15 10 -12 -8 -3
-6 -10 7 13 10 -14 -10 -5
-4 -9 6 13 10 -14 -10 -6
-5 -8 7 14 12 -12 -9 -6
-7 -6 8 16 13 -10 -7 -5
-4 -5 8 17 14 -9 -7 -4
0 -7 8 17 13 -9 -7 -4
0 -7 6 17 12 -11 -9 -5
-3 -6 7 20 13 -12 -9 -5
-6 -5 9 23 17 -9 -6 -3
-5 -5 8 23 18 -9 -7 -3
2 -6 6 22 18 -9 -8 -4
4 -5 7 23 20 -7 -6 -2
2 0 7 25 23 -5 -4 1
0 4 8 26 24 -3 -3 2
1 4 9 27 25 -2 -2 2
4 4 11 29 26 1 1 3
8 5 11 31 26 0 0 3
7 1 9 30 26 -3 -3 1
2 -4 8 31 27 -3 -4 -2
2 -4 9 33 29 1 -2 1
2 0 10 35 32 4 1 3
-2 2 10 36 35 6 3 4
-2 2 11 38 37 10 6 6
2 3 10 38 37 10 5 6
5 3 8 37 36 9 5 5
7 3 8 38 35 9 6 6
10 4 7 39 35 10 7 7
14 7 7 39 36 10 7 8
18 12 7 42 39 12 9 11
17 14 8 44 42 16 12 13
12 11 7 43 42 16 12 12
9 8 4 39 39 15 11 10
10 9 4 39 42 18 14 12
10 11 5 42 44 22 18 16
8 9 3 39 42 23 18 16
4 7 2 39 40 23 19 16
4 10 2 40 40 24 20 17
15 16 2 40 40 25 20 18
29 24 3 40 43 26 21 20
28 24 2 39 43 27 22 21
16 17 1 38 43 28 22 22
13 16 -3 34 40 26 22 21
19 20 -3 32 38 26 22 20
22 22 -4 30 36 26 22 19
20 22 -3 31 37 29 24 21
21 24 -2 31 36 30 27 23
21 25 -2 30 34 28 26 24
21 23 -2 30 33 27 25 24
20 19 -4 28 32 25 23 22
16 18 -6 27 31 24 21 21
16 22 -3 28 35 27 24 24
19 25 -3 28 36 28 25 25
16 19 -4 24 32 27 24 24
15 14 -5 20 27 23 22 22
21 20 -2 21 27 23 23 24
25 25 2 23 27 24 23 24
16 19 0 21 24 21 21 21
8 13 -3 19 22 18 18 18
11 14 -3 18 23 17 17 18
15 16 -2 18 24 18 17 18
10 14 0 18 25 18 17 18
7 15 1 18 25 18 17 17
10 18 3 17 25 20 17 16
10 15 2 15 23 18 15 14
4 8 1 13 19 14 13 11
0 6 2 12 17 13 11 10
2 11 4 14 18 13 11 11
7 16 6 15 19 13 10 11
8 13 5 13 17 10 7 8
6 6 3 10 15 8 5 5
6 5 2 8 14 7 3 4
4 5 2 8 14 7 2 4
1 3 2 6 13 7 2 2
3 7 4 6 13 9 4 3
9 14 5 8 14 11 5 4
5 11 5 7 12 9 4 2
-6 0 4 5 9 6 1 0
-7 -3 3 4 7 3 -2 -3
-2 1 6 6 9 4 0 -2
0 1 7 6 10 3 -3 -3
-3 0 7 6 10 3 -3 -2
0 2 7 5 11 4 -2 0
0 5 6 4 9 4 -3 -2
-7 3 4 2 7 2 -4 -3
-9 1 3 1 6 1 -5 -3
-3 3 5 2 5 1 -5 -3
-2 2 6 3 6 1 -4 -2
-4 -3 6 3 5 0 -6 -4
-3 -4 5 2 4 -3 -8 -6
1 0 5 1 4 -3 -9 -8
1 -3 6 1 5 -2 -8 -9
-5 -8 5 0 5 -3 -7 -8
-8 -10 5 0 4 -2 -6 -6
-5 -7 5 0 5 1 -5 -6
0 -4 6 0 5 1 -4 -5
1 -4 5 1 4 1 -4 -4
2 -4 7 2 5 1 -4 -3
1 -5 8 3 6 1 -4 -3
-2 -6 8 3 5 0 -5 -4
-5 -9 9 3 5 0 -5 -4
-8 -10 7 2 5 -2 -6 -7
-7 -9 6 0 5 -2 -7 -8
-4 -5 5 0 5 -2 -8 -8
-3 -6 4 -3 3 -4 -9 -8
-4 -10 4 -3 1 -7 -11 -9
-5 -10 3 -4 -2 -9 -13 -9
-3 -7 3 -3 -2 -10 -13 -11
-2 -7 5 0 1 -10 -12 -10
-6 -9 6 1 2 -9 -11 -9
-10 -9 7 2 4 -7 -10 -7
-7 -8 9 4 6 -6 -10 -6
-5 -9 8 3 6 -7 -10 -6
-9 -12 6 -2 3 -8 -12 -8
-10 -13 6 -2 3 -7 -11 -7
-6 -10 8 1 4 -7 -11 -7
-3 -7 10 3 4 -6 -10 -6
-3 -7 10 3 4 -7 -11 -7
2 -5 10 4 4 -8 -11 -7
6 -2 11 6 6 -7 -10 -6
1 -3 11 6 7 -6 -10 -5
-8 -9 10 4 6 -8 -12 -7
-10 -13 6 0 3 -11 -14 -10
-10 -13 7 0 3 -9 -13 -10
-8 -11 7 0 2 -8 -13 -9
-7 -10 8 1 2 -8 -12 -8
-7 -9 7 1 2 -8 -13 -9
-9 -8 9 3 3 -7 -12 -8
-10 -9 9 4 3 -8 -13 -8
-9 -10 8 3 3 -10 -14 -9
-7 -9 7 2 3 -10 -14 -10
-6 -7 8 2 3 -10 -14 -10
-6 -5 9 3 4 -8 -13 -8
-7 -4 9 3 4 -7 -11 -8
-8 -6 8 3 4 -7 -10 -7
-9 -10 6 1 1 -10 -12 -8
-10 -14 5 0 -2 -12 -13 -8
-6 -10 9 4 2 -9 -10 -5
2 0 13 7 6 -6 -8 -2
0 0 13 8 7 -5 -7 -2
-9 -7 9 5 5 -7 -9 -5
-11 -6 9 5 5 -7 -9 -4
-9 -2 9 4 6 -6 -9 -3
-9 -4 7 1 4 -8 -11 -6
-10 -7 7 0 3 -8 -11 -7
-7 -4 7 0 3 -8 -10 -7
-2 1 8 2 4 -8 -9 -4
3 1 7 1 2 -10 -10 -3
2 -3 6 1 0 -11 -11 -3
-4 -5 5 1 1 -11 -11 -4
-4 -4 7 2 3 -9 -10 -4
-3 -4 8 2 4 -8 -10 -5
-8 -7 8 2 4 -8 -9 -5
-12 -10 5 0 3 -9 -9 -6
-10 -10 3 -3 -2 -11 -10 -6
-3 -6 4 -3 -3 -11 -10 -3
0 -2 6 0 0 -9 -8 0
-7 -5 7 2 1 -8 -7 1
-10 -9 4 0 -2 -11 -9 -3
-7 -9 3 0 0 -12 -9 -3
-5 -7 5 2 2 -9 -8 -2
-9 -7 5 1 1 -10 -9 -3
-8 -8 3 -3 0 -12 -9 -5
-4 -7 3 -3 1 -10 -8 -4
-6 -7 3 -4 -2 -9 -8 -4
-10 -8 4 -2 -2 -9 -7 -2
-7 -6 4 0 -2 -8 -7 -2
-5 -5 4 1 0 -8 -7 0
-10 -9 4 0 -2 -9 -8 -3
-15 -14 3 -2 -3 -10 -9 -5
-12 -13 5 0 -2 -9 -8 -4
-5 -8 5 0 0 -8 -7 -3
4 0 5 -2 1 -7 -7 -2
7 3 6 0 1 -6 -5 0
3 -2 5 -2 -2 -7 -5 -2
0 -5 3 -4 -5 -10 -7 -3
-2 -5 4 -3 -4 -10 -7 -3
-5 -9 5 0 -3 -9 -7 -2
-10 -12 3 -4 -5 -12 -10 -5
-10 -13 1 -5 -6 -13 -12 -7
-10 -13 2 -4 -5 -13 -11 -7
-12 -11 2 -4 -4 -12 -11 -6
-12 -8 2 -4 -3 -11 -10 -5
-8 -4 5 -2 0 -9 -8 -4
-6 -4 5 -3 -3 -11 -9 -5
-12 -9 2 -6 -6 -14 -11 -8
-15 -11 2 -6 -7 -14 -11 -6
-11 -7 4 -4 -5 -13 -9 -4
-6 -3 5 -2 -4 -11 -8 -3
-2 -3 3 -5 -5 -13 -11 -5
1 -6 0 -8 -7 -15 -14 -9
-4 -7 1 -6 -5 -14 -13 -9
-10 -6 2 -5 -4 -13 -11 -8
-14 -8 3 -5 -4 -13 -10 -7
-13 -9 2 -6 -5 -13 -11 -7
-5 -6 3 -5 -5 -12 -9 -5
1 -4 4 -5 -5 -11 -8 -3
1 -7 3 -5 -7 -13 -9 -4
1 -10 1 -6 -9 -16 -12 -7
-3 -11 1 -6 -9 -16 -13 -8
-5 -10 0 -7 -9 -17 -13 -9
-2 -8 1 -7 -9 -16 -13 -7
-4 -7 3 -5 -7 -14 -11 -4
-13 -10 1 -8 -9 -15 -12 -6
-16 -11 0 -8 -11 -17 -14 -7
-10 -5 1 -7 -10 -15 -13 -6
-4 2 4 -4 -6 -13 -10 -4
-6 3 5 -3 -5 -12 -9 -4
-9 2 6 -2 -3 -12 -9 -3
-9 2 5 -2 -3 -12 -10 -3
-6 3 4 -2 -4 -12 -11 -5
-4 4 4 -2 -4 -12 -10 -5
-6 2 4 -2 -2 -10 -8 -4
-7 2 3 -3 -2 -10 -8 -3
-4 5 5 0 2 -7 -5 1
-2 6 7 1 3 -5 -3 3
-2 7 7 1 2 -5 -3 3
0 11 6 1 1 -6 -4 3
2 11 4 0 0 -8 -6 1
-6 3 1 -4 -4 -12 -9 -3
-12 -3 0 -6 -6 -14 -11 -4
-10 2 1 -5 -4 -13 -10 -4
-7 6 3 -4 0 -10 -7 -2
-6 10 4 -3 2 -6 -5 2
-6 17 5 0 4 -2 -2 6
-10 19 4 -2 4 0 0 7
-11 15 1 -4 1 -3 -2 6
-7 11 -4 -7 -4 -7 -6 3
-6 7 -5 -7 -4 -10 -7 2
-6 8 -3 -5 -2 -8 -5 3
3 16 -2 -3 2 -6 -3 5
7 21 -2 -2 4 -3 1 8
2 18 -4 -4 3 -4 1 8
1 16 -7 -7 0 -6 -2 6
6 15 -9 -8 -3 -7 -3 5
8 12 -11 -10 -6 -9 -5 2
9 10 -12 -12 -8 -10 -7 1
8 11 -11 -12 -7 -10 -6 2
4 11 -9 -9 -4 -8 -4 5
3 10 -9 -9 -4 -9 -4 5
5 9 -8 -9 -4 -9 -5 3
7 8 -7 -8 -3 -9 -6 1
9 9 -4 -6 0 -6 -4 1
7 9 -3 -5 0 -7 -6 0
-2 2 -3 -7 -4 -10 -9 -4
-10 -5 -3 -10 -7 -14 -13 -7
-13 -6 -2 -9 -9 -15 -14 -8
-13 -6 2 -6 -7 -14 -12 -8
-11 -8 3 -5 -6 -14 -12 -8
-10 -9 2 -6 -8 -15 -13 -9
-9 -8 3 -6 -7 -14 -13 -8
-8 -7 2 -8 -7 -15 -13 -7
-9 -9 0 -9 -9 -15 -15 -8
-10 -8 2 -9 -8 -14 -15 -8
-8 0 5 -7 -5 -12 -13 -6
-7 2 3 -8 -7 -13 -13 -7
-12 -8 0 -12 -12 -17 -17 -10
-17 -13 -3 -14 -15 -21 -19 -13
-14 -10 1 -11 -13 -21 -20 -13
-10 -8 2 -9 -11 -19 -18 -11
-14 -11 2 -8 -10 -18 -19 -11
-15 -12 1 -10 -11 -18 -19 -12
-11 -11 1 -9 -10 -16 -17 -11
-9 -12 0 -11 -12 -17 -18 -12
-13 -17 -2 -12 -13 -17 -19 -13
-19 -22 -3 -13 -14 -18 -20 -13
-19 -22 -4 -13 -16 -20 -21 -13
-15 -16 0 -10 -13 -17 -18 -11
-10 -9 3 -7 -9 -14 -14 -8
-10 -8 3 -6 -8 -14 -14 -8
-17 -15 1 -8 -11 -16 -17 -9
-23 -20 0 -9 -11 -16 -17 -10
-21 -17 0 -10 -11 -17 -19 -12
-13 -11 0 -10 -12 -17 -19 -12
-7 -11 2 -7 -9 -16 -19 -12
-10 -16 4 -3 -7 -16 -21 -15
-12 -16 10 6 2 -13 -21 -15
-10 -11 15 17 12 -8 -19 -15
-9 -11 21 29 25 2 -14 -13
-7 -14 23 38 37 15 -7 -10
-3 -15 23 46 50 32 5 -5
1 -16 22 53 63 54 17 0
8 -9 24 69 87 85 35 11
27 8 23 86 115 123 63 27
47 25 13 85 135 163 96 48
57 34 -7 65 143 203 129 69
68 43 -32 37 143 242 160 90
88 56 -55 6 138 284 193 110
105 68 -77 -31 126 324 226 131
112 72 -95 -63 112 358 256 147
115 66 -106 -78 108 385 272 154
115 54 -107 -85 108 396 271 148
109 35 -103 -88 105 386 255 132
101 13 -96 -89 95 352 223 109
92 -12 -90 -93 75 301 176 79
76 -33 -85 -100 44 234 122 46
54 -38 -83 -113 4 160 77 22
30 -26 -85 -131 -39 88 44 13
10 -12 -87 -148 -83 18 13 5
-10 -5 -88 -162 -121 -46 -18 -7
-29 4 -89 -173 -146 -93 -45 -18
-41 11 -86 -170 -151 -116 -57 -22
-38 11 -77 -155 -141 -117 -57 -22
-29 4 -70 -136 -122 -107 -52 -21
-24 -4 -65 -115 -103 -95 -46 -20
-23 -6 -57 -93 -82 -85 -40 -18
-20 -5 -43 -71 -64 -75 -35 -16
-22 -8 -31 -55 -52 -71 -33 -17
-23 -8 -23 -41 -43 -67 -31 -17
-17 -2 -17 -31 -34 -62 -28 -15
-10 2 -11 -24 -25 -53 -25 -12
-14 -6 -9 -21 -21 -50 -26 -13
-26 -12 -9 -20 -20 -50 -26 -15
-29 -12 -7 -19 -18 -48 -25 -14
-19 -9 -5 -16 -15 -45 -24 -13
-11 -8 -4 -15 -15 -45 -24 -13
-13 -10 -5 -14 -17 -48 -26 -16
-16 -16 -4 -12 -17 -48 -27 -16
-15 -19 -3 -10 -16 -48 -27 -16
-14 -19 0 -8 -15 -49 -27 -17
-11 -15 2 -6 -11 -48 -26 -15
-8 -11 4 -4 -9 -45 -24 -13
-10 -11 3 -5 -8 -44 -24 -13
-13 -10 2 -6 -8 -44 -24 -14
-14 -9 1 -8 -9 -44 -24 -15
-13 -11 0 -9 -12 -46 -26 -17
-12 -11 -2 -9 -14 -48 -27 -18
-10 -9 1 -5 -12 -45 -24 -16
-10 -9 5 1 -8 -41 -21 -12
-13 -11 6 1 -8 -43 -22 -13
-18 -14 6 1 -6 -43 -23 -13
-16 -15 5 0 -6 -43 -23 -13
-12 -15 1 -6 -9 -45 -27 -16
-13 -17 -2 -7 -10 -45 -28 -18
-15 -14 1 -5 -8 -40 -24 -15
-17 -13 3 -3 -6 -36 -21 -12
-17 -15 3 -3 -8 -39 -22 -14
-16 -14 3 -2 -10 -41 -24 -15
-14 -11 5 2 -10 -41 -23 -14
-16 -12 5 2 -10 -43 -24 -15
-19 -15 5 2 -9 -45 -25 -17
-15 -11 5 2 -7 -43 -25 -17
-10 -6 7 5 -2 -37 -21 -13
-13 -7 6 4 0 -36 -19 -12
-16 -12 3 1 -4 -38 -21 -15
-14 -14 2 -2 -8 -40 -24 -18
-12 -11 1 -2 -9 -40 -24 -18
-14 -10 2 0 -8 -39 -23 -15
-17 -12 4 2 -9 -40 -23 -13
-19 -14 4 2 -9 -43 -24 -14
-18 -12 4 3 -7 -43 -24 -14
-12 -7 4 4 -4 -40 -22 -12
-9 -6 4 3 -3 -39 -21 -12
-13 -10 1 0 -7 -41 -23 -15
-16 -12 2 0 -5 -38 -21 -13
-10 -5 4 3 -2 -35 -18 -10
-6 -2 5 5 -3 -36 -20 -11
-10 -8 2 3 -6 -38 -23 -14
-12 -9 0 2 -8 -40 -26 -16
-12 -6 2 5 -5 -38 -23 -14
-12 -6 3 6 -2 -36 -21 -13
-10 -6 5 8 2 -33 -20 -12
-7 -5 7 10 5 -31 -17 -10
-10 -6 7 10 6 -29 -16 -8
-14 -10 5 8 4 -30 -16 -9
-10 -11 3 6 1 -32 -17 -11
-6 -9 4 7 1 -32 -17 -11
-6 -8 6 9 3 -31 -15 -9
-10 -10 6 10 2 -32 -17 -10
-12 -15 3 8 0 -36 -21 -13
-13 -16 3 8 1 -38 -23 -14
-11 -11 5 11 5 -34 -20 -13
-11 -6 8 15 9 -29 -17 -11
-13 -7 5 12 7 -29 -18 -13
-12 -8 3 11 6 -28 -18 -13
-8 -5 4 12 6 -25 -17 -11
-7 -4 6 14 8 -24 -15 -10
-12 -7 7 15 9 -24 -14 -8
-16 -9 8 18 10 -23 -13 -7
-10 -8 7 20 12 -24 -13 -8
-4 -7 7 21 13 -24 -14 -8
-4 -9 5 20 13 -25 -15 -9
-6 -9 5 20 14 -24 -14 -9
-2 -6 5 21 16 -22 -13 -7
0 0 5 24 19 -19 -10 -5
-4 2 6 26 20 -16 -8 -4
-4 2 6 27 21 -15 -8 -4
0 1 5 27 20 -17 -10 -6
0 1 6 29 21 -17 -10 -5
0 3 9 33 25 -15 -7 -3
2 5 8 33 25 -15 -7 -3
0 1 6 32 25 -15 -8 -4
-9 -5 6 33 27 -12 -6 -3
-10 -4 6 34 29 -10 -5 -2
-2 3 6 34 30 -7 -4 0
7 10 6 35 31 -4 -2 1
11 11 6 38 31 -3 1 3
10 8 5 38 31 -5 0 2
5 7 3 37 30 -6 -2 2
5 8 4 39 31 -5 0 3
3 8 4 40 34 -3 3 4
-5 4 4 40 36 0 4 4
-2 4 3 38 36 2 5 5
9 9 1 37 35 4 6 6
11 11 -2 36 35 5 7 8
8 12 -2 36 36 7 9 10
8 13 1 38 38 10 12 13
10 14 2 39 39 12 13 14
13 14 1 40 38 12 13 14
15 15 -2 37 36 10 11 12
17 17 -4 36 36 9 12 12
17 19 -3 36 38 12 14 14
11 17 -5 35 38 13 15 15
6 13 -6 31 35 12 15 14
9 12 -7 29 33 14 14 13
15 14 -8 27 31 14 14 13
13 14 -8 28 32 15 17 15
6 14 -7 29 31 15 18 16
7 15 -8 29 30 14 16 17
14 18 -8 28 30 12 14 16
18 20 -7 28 30 12 14 16
16 22 -7 26 28 12 13 15
12 20 -7 25 28 13 14 16
10 16 -7 23 28 14 15 17
8 13 -8 20 25 12 14 16
6 12 -10 17 22 10 12 14
9 16 -10 16 20 7 11 13
14 20 -6 19 22 8 12 14
18 22 -5 20 21 8 11 14
14 21 -4 21 20 8 10 13
10 19 -3 20 21 7 9 12
12 19 -3 19 21 6 8 11
13 18 -3 17 20 6 7 10
8 13 -5 13 17 3 5 6
3 8 -6 10 15 2 2 2
2 10 -4 11 15 4 4 4
1 12 -3 13 16 5 5 6
0 12 1 14 17 5 4 6
-3 12 2 14 16 3 2 4
1 11 2 14 16 2 2 3
7 11 1 12 14 -2 -2 2
8 9 0 10 12 -4 -4 1
-2 3 -2 8 11 -5 -5 -2
-8 0 0 7 11 -4 -5 -3
-2 7 2 8 14 -2 -3 -2
2 11 3 8 13 0 -4 -2
-8 5 3 6 11 -2 -6 -4
-16 -4 2 5 10 -4 -8 -6
-10 -2 3 5 9 -5 -9 -8
1 4 1 4 6 -8 -11 -9
0 2 2 6 6 -9 -11 -8
-9 -5 4 7 7 -9 -10 -6
-12 -8 4 5 7 -9 -10 -7
-9 -4 4 4 6 -8 -10 -7
-5 1 3 2 5 -8 -10 -7
-6 1 1 0 2 -8 -11 -9
-9 -3 2 1 2 -8 -11 -9
-10 -7 3 3 2 -8 -12 -8
-9 -11 1 1 0 -10 -14 -12
-10 -11 0 0 -2 -12 -16 -14
-10 -5 3 3 2 -10 -14 -12
-3 3 5 4 5 -8 -13 -10
0 3 7 5 7 -5 -11 -8
-9 -6 5 1 4 -7 -12 -9
-15 -14 3 -4 0 -9 -14 -11
-12 -13 3 -4 0 -9 -15 -12
-8 -8 3 -3 0 -10 -16 -13
-8 -6 4 -2 -2 -11 -16 -14
-10 -8 3 0 -2 -12 -17 -15
-13 -9 2 0 -3 -12 -18 -15
-11 -9 2 0 -2 -12 -18 -14
-7 -7 5 1 3 -10 -15 -11
-5 -5 4 0 2 -11 -16 -12
-6 -7 2 -2 1 -12 -16 -13
-8 -9 1 -3 0 -11 -17 -14
-9 -10 1 -4 -2 -11 -18 -15
-8 -9 3 -2 -2 -11 -17 -14
-8 -8 3 0 -2 -12 -16 -14
-10 -9 3 1 0 -12 -17 -14
-13 -10 2 0 -2 -13 -19 -16
-15 -13 3 0 -3 -14 -20 -17
-14 -13 2 -2 -3 -15 -21 -18
-12 -10 4 0 1 -13 -18 -15
-13 -9 4 0 2 -13 -16 -13
-12 -9 2 -3 0 -14 -17 -15
-8 -9 3 0 1 -12 -17 -14
-7 -9 4 1 1 -12 -18 -15
-11 -10 3 1 0 -13 -18 -16
-14 -11 3 2 0 -13 -18 -16
-14 -12 2 0 0 -16 -20 -17
-12 -11 3 0 0 -17 -21 -17
-10 -10 3 2 0 -15 -20 -16
-10 -11 3 1 1 -15 -20 -16
-10 -12 1 -3 -2 -17 -21 -17
-10 -13 1 -6 -4 -17 -22 -19
-10 -13 1 -5 -4 -16 -21 -18
-11 -12 2 -3 -2 -14 -19 -15
-11 -9 4 1 1 -13 -18 -13
-5 -4 7 4 3 -11 -15 -10
0 0 9 6 5 -10 -15 -10
-4 -3 6 2 3 -14 -17 -13
-11 -7 4 1 1 -14 -19 -15
-12 -9 4 1 1 -14 -18 -14
-10 -9 5 2 5 -12 -15 -10
-8 -9 4 0 4 -13 -15 -11
-10 -9 2 -4 0 -15 -19 -15
-12 -12 1 -7 -5 -17 -20 -18
-14 -15 2 -5 -4 -16 -19 -16
-14 -13 3 -2 -2 -13 -17 -13
-10 -8 6 3 2 -12 -14 -10
-7 -5 4 2 2 -13 -14 -10
-8 -5 2 0 1 -14 -15 -11
-8 -4 4 1 4 -11 -14 -9
-6 -4 5 2 5 -10 -12 -8
-7 -7 3 0 3 -11 -13 -9
-9 -8 1 -4 0 -12 -15 -11
-8 -5 1 -3 0 -12 -14 -11
-10 -7 3 1 1 -9 -12 -9
-14 -9 3 0 0 -10 -13 -11
-11 -6 6 3 3 -8 -12 -9
-5 -2 4 1 2 -10 -14 -12
-4 -5 1 -4 0 -12 -16 -13
-8 -7 0 -5 0 -12 -16 -12
-10 -2 2 -3 3 -9 -14 -10
-10 1 2 -3 3 -9 -14 -10
-11 -3 1 -4 0 -10 -14 -11
-10 -4 0 -4 -3 -11 -14 -12
-5 -3 1 -3 -3 -11 -14 -11
-6 -6 1 -2 -3 -11 -13 -10
-10 -9 3 1 0 -9 -12 -10
-6 -5 5 3 3 -8 -10 -8
3 -2 4 1 3 -9 -10 -8
1 -5 3 -3 2 -10 -11 -8
-5 -9 1 -5 1 -11 -12 -9
-5 -9 0 -6 -2 -12 -13 -9
-3 -5 -2 -7 -3 -12 -13 -10
-2 -2 1 -6 -3 -10 -11 -10
-3 -2 2 -4 -3 -8 -10 -9
-8 -7 1 -6 -4 -9 -12 -10
-10 -11 -2 -8 -7 -14 -15 -13
-9 -9 0 -6 -4 -12 -14 -11
-8 -3 2 -5 -2 -10 -13 -10
-12 -2 3 -5 0 -9 -12 -9
-13 -4 1 -8 -3 -11 -13 -10
-3 1 0 -9 -5 -11 -14 -12
6 6 3 -6 -2 -7 -11 -9
-3 0 4 -4 0 -6 -10 -9
-11 -11 1 -7 -5 -10 -13 -11
-10 -12 1 -8 -7 -11 -14 -10
-5 -8 2 -6 -4 -10 -13 -9
-6 -6 4 -4 -2 -9 -13 -8
-10 -8 3 -4 -3 -9 -12 -8
-10 -8 1 -7 -3 -11 -14 -10
-9 -9 1 -9 -4 -11 -15 -11
-10 -9 -2 -11 -7 -13 -16 -13
-10 -9 -3 -12 -8 -14 -17 -14
-6 -6 -3 -11 -8 -13 -16 -13
-2 0 1 -8 -6 -11 -15 -12
-5 -2 3 -6 -5 -10 -14 -10
-15 -9 1 -8 -7 -13 -15 -11
-21 -13 2 -8 -7 -12 -15 -12
-14 -12 2 -8 -6 -12 -14 -10
-5 -9 1 -9 -5 -11 -13 -11
-4 -11 -2 -10 -7 -12 -16 -14
-3 -9 -3 -11 -8 -12 -16 -13
6 -3 1 -10 -7 -10 -14 -11
7 0 3 -8 -5 -9 -13 -9
-2 -6 2 -8 -8 -10 -14 -10
-8 -10 0 -9 -10 -13 -15 -11
-9 -12 0 -9 -9 -14 -16 -11
-9 -12 1 -8 -8 -13 -15 -11
-7 -9 0 -9 -8 -14 -15 -11
-5 -7 1 -10 -8 -13 -14 -10
-6 -6 1 -10 -7 -13 -15 -11
-8 -8 0 -10 -8 -13 -15 -12
-10 -10 -2 -11 -9 -13 -17 -14
-12 -10 -2 -11 -9 -13 -17 -14
-9 -7 1 -10 -8 -12 -14 -12
-7 -4 4 -7 -5 -9 -12 -10
-8 -7 4 -6 -5 -11 -13 -10
-7 -7 4 -7 -6 -12 -14 -11
-4 0 5 -6 -5 -11 -14 -11
-5 0 5 -6 -3 -10 -12 -9
-5 -4 4 -8 -5 -11 -13 -9
0 -2 3 -9 -5 -10 -14 -10
2 3 4 -8 -4 -9 -14 -9
-3 2 5 -7 -3 -8 -13 -9
-5 0 4 -7 -4 -9 -13 -10
0 2 4 -7 -5 -10 -13 -10
3 5 4 -6 -5 -10 -12 -10
1 6 4 -6 -5 -9 -11 -9
-4 5 5 -5 -3 -6 -10 -7
-8 5 5 -5 0 -5 -9 -6
-11 4 5 -4 2 -3 -7 -4
-10 4 4 -7 0 -5 -9 -5
-6 7 4 -8 -3 -7 -11 -6
-3 10 6 -6 -2 -6 -10 -6
-6 12 6 -6 0 -4 -8 -5
-9 12 3 -8 -3 -5 -8 -5
-5 11 1 -9 -4 -6 -9 -4
5 12 1 -9 -2 -4 -7 -2
11 15 0 -9 0 -4 -6 0
7 13 -3 -12 -2 -6 -8 -3
1 11 -4 -13 -3 -7 -9 -4
3 15 -3 -11 -2 -4 -6 -2
10 25 2 -7 3 2 -2 3
13 29 4 -4 6 6 2 6
8 24 0 -7 3 3 0 4
2 16 -4 -10 -2 -3 -5 1
2 11 -7 -12 -4 -6 -7 0
4 12 -7 -11 -4 -5 -6 1
8 17 -7 -12 -4 -3 -5 1
14 19 -7 -13 -4 -2 -5 1
13 14 -9 -15 -5 -3 -7 0
4 8 -8 -15 -5 -2 -6 -3
2 6 -7 -13 -4 0 -5 -3
9 8 -6 -13 -6 -2 -7 -5
9 7 -5 -13 -8 -6 -10 -7
3 6 0 -11 -7 -6 -10 -8
4 7 3 -9 -5 -6 -10 -8
5 4 5 -8 -5 -7 -11 -8
-4 -5 5 -10 -7 -10 -14 -10
-11 -10 2 -12 -9 -12 -16 -11
-10 -9 3 -11 -8 -10 -13 -9
-7 -5 4 -11 -8 -9 -12 -8
-8 -8 4 -12 -8 -9 -12 -8
-10 -9 4 -11 -9 -9 -12 -8
-10 -7 8 -9 -7 -7 -11 -6
-5 -7 6 -11 -9 -10 -14 -10
-2 -9 3 -14 -12 -15 -18 -14
-6 -11 3 -13 -12 -14 -18 -14
-10 -12 3 -13 -12 -15 -19 -14
-13 -14 2 -15 -12 -17 -20 -15
-11 -13 2 -16 -12 -17 -20 -15
-9 -9 5 -13 -10 -13 -16 -12
-9 -8 6 -11 -9 -12 -14 -10
-10 -9 5 -13 -11 -14 -17 -12
-7 -9 4 -14 -12 -15 -18 -14
-4 -7 4 -13 -12 -15 -18 -14
-8 -9 3 -14 -13 -16 -19 -15
-15 -18 1 -18 -16 -18 -20 -16
-17 -20 2 -16 -13 -15 -18 -14
-11 -13 4 -13 -9 -12 -16 -11
-6 -9 7 -11 -6 -9 -13 -9
-6 -9 4 -14 -10 -12 -16 -11
-8 -9 4 -13 -10 -12 -16 -12
-8 -10 5 -11 -9 -11 -15 -11
-9 -14 4 -12 -10 -12 -16 -12
-11 -17 5 -11 -10 -13 -18 -14
-10 -14 9 -6 -6 -13 -18 -13
-6 -11 16 5 4 -9 -16 -12
-4 -13 20 12 11 -6 -17 -15
-6 -15 23 19 20 1 -17 -18
-4 -10 29 31 36 16 -8 -13
1 -7 30 39 48 33 5 -7
2 -11 29 47 59 53 16 0
4 -15 30 60 77 78 32 8
17 -5 31 77 104 112 57 22
42 17 25 86 128 151 87 42
65 33 6 72 138 187 116 60
76 42 -18 47 140 225 147 79
80 48 -44 15 138 265 180 99
89 55 -69 -24 126 303 212 118
106 67 -90 -60 110 341 242 137
120 75 -100 -79 105 375 268 152
121 70 -100 -82 108 394 279 156
115 53 -95 -83 109 395 271 146
103 22 -89 -86 101 373 244 125
90 -11 -86 -91 81 330 199 94
79 -35 -82 -98 54 271 145 59
62 -45 -77 -107 19 203 95 32
39 -36 -77 -124 -23 132 57 17
25 -17 -80 -145 -68 62 25 9
14 -5 -83 -163 -111 -5 -8 -4
-5 4 -83 -175 -140 -56 -34 -15
-20 14 -82 -178 -154 -86 -52 -21
-25 20 -77 -168 -148 -92 -56 -22
-24 15 -69 -149 -133 -85 -52 -23
-21 8 -62 -127 -112 -70 -44 -21
-17 7 -55 -103 -91 -58 -37 -18
-15 6 -44 -81 -72 -49 -34 -18
-17 1 -31 -63 -57 -43 -30 -16
-18 -5 -23 -52 -48 -37 -29 -16
-15 -4 -16 -43 -38 -32 -26 -15
-10 -2 -12 -34 -31 -29 -24 -14
-9 -3 -8 -28 -26 -25 -22 -13
-11 -5 -6 -25 -23 -23 -22 -14
-15 -6 -5 -24 -21 -24 -23 -15
-13 -7 -3 -21 -18 -23 -23 -15
-6 -5 1 -16 -15 -20 -21 -13
-2 -3 4 -13 -14 -18 -20 -12
-5 -7 4 -12 -15 -20 -21 -14
-9 -13 2 -14 -17 -24 -25 -17
-8 -13 3 -13 -16 -25 -26 -18
-7 -9 7 -9 -12 -21 -22 -14
-11 -9 7 -7 -11 -19 -20 -12
-12 -11 7 -7 -10 -18 -19 -12
-6 -8 8 -5 -7 -15 -18 -11
-6 -8 8 -5 -6 -15 -17 -11
-15 -14 4 -7 -10 -17 -20 -14
-21 -19 4 -8 -11 -19 -21 -14
-16 -14 5 -7 -11 -19 -20 -12
-11 -9 8 -5 -9 -17 -17 -9
-15 -10 10 -2 -7 -16 -17 -9
-16 -10 9 -4 -8 -18 -18 -10
-8 -9 9 -5 -9 -19 -18 -10
-2 -9 6 -6 -10 -20 -19 -11
-2 -7 5 -6 -9 -19 -19 -11
-6 -6 6 -5 -7 -16 -17 -10
-9 -9 7 -4 -7 -16 -16 -10
-8 -9 7 -3 -8 -17 -18 -11
-4 -8 8 -3 -8 -17 -18 -11
-5 -5 9 -2 -7 -17 -17 -11
-7 -6 10 1 -7 -16 -16 -9
-9 -10 9 1 -7 -15 -15 -8
-12 -15 7 -2 -8 -17 -17 -10
-12 -14 7 -3 -8 -17 -17 -11
-10 -10 7 -2 -7 -17 -17 -10
-9 -10 7 -2 -7 -16 -17 -11
-7 -11 8 0 -5 -15 -16 -11
-6 -10 7 0 -5 -15 -16 -11
-10 -10 6 0 -5 -15 -16 -11
-12 -10 7 1 -4 -15 -15 -10
-8 -8 7 1 -5 -16 -15 -9
-4 -8 5 -2 -8 -19 -16 -9
-5 -9 4 -3 -8 -20 -18 -9
-4 -6 5 0 -6 -19 -17 -9
-2 1 8 3 -3 -16 -14 -6
-6 -4 8 2 -5 -17 -14 -7
-11 -10 5 -2 -9 -19 -17 -10
-12 -11 5 1 -8 -18 -16 -10
-11 -9 8 4 -5 -14 -14 -8
-10 -9 7 5 -4 -14 -14 -9
-6 -11 5 3 -5 -16 -17 -11
-2 -9 4 3 -4 -16 -18 -11
-3 0 7 6 0 -14 -16 -9
-4 4 9 8 2 -11 -14 -6
-3 3 7 6 1 -12 -15 -6
0 1 5 5 -2 -14 -15 -8
-6 -5 7 7 1 -12 -14 -7
-10 -8 8 9 2 -11 -12 -6
-5 -2 9 9 3 -10 -10 -5
4 4 9 10 4 -10 -9 -4
3 0 8 10 4 -11 -10 -4
-4 -9 4 7 1 -14 -13 -7
-10 -14 2 5 -3 -15 -14 -9
-9 -12 2 6 -2 -15 -14 -9
-3 -6 5 9 3 -11 -11 -6
2 -2 6 12 6 -7 -9 -4
3 0 7 14 8 -5 -8 -3
4 1 8 16 8 -4 -8 -4
3 3 9 18 10 -3 -7 -3
0 2 9 18 10 -3 -6 -4
2 2 8 19 10 -4 -8 -5
4 0 8 19 11 -5 -8 -3
0 -6 7 19 12 -5 -9 -3
-5 -9 5 19 13 -4 -9 -4
-3 -5 5 19 14 -2 -8 -5
1 -2 6 21 15 0 -7 -4
2 -2 6 22 15 0 -7 -4
4 1 7 23 17 1 -5 -3
3 2 8 25 18 2 -4 -2
-2 0 7 25 17 0 -5 -3
-2 0 7 26 17 0 -6 -3
2 5 7 27 19 1 -5 -3
1 7 8 29 22 4 -3 -2
0 7 7 30 24 6 0 1
3 7 6 31 26 9 2 3
7 6 7 33 28 11 4 6
9 6 7 34 29 13 6 8
9 6 7 36 31 14 7 9
9 6 6 36 31 14 7 9
6 5 5 35 30 14 7 9
4 5 6 36 31 15 8 10
8 10 7 38 33 17 10 12
11 14 8 39 34 20 12 14
10 14 7 38 35 22 13 14
12 15 5 37 34 22 13 13
21 20 4 37 35 24 14 14
24 21 3 37 35 25 16 15
17 16 1 36 34 25 16 15
12 13 -2 36 33 25 17 15
17 17 -2 35 33 26 18 16
24 22 -2 36 34 27 18 18
23 24 1 37 36 29 20 20
15 19 -2 34 34 28 19 19
9 11 -4 32 32 28 20 20
11 12 -6 29 30 28 21 20
18 17 -7 28 29 29 22 20
21 22 -7 28 29 29 23 21
18 22 -7 28 30 30 24 22
16 19 -8 27 29 29 23 23
19 19 -9 25 26 28 22 22
19 19 -9 24 26 28 22 22
18 19 -8 24 27 28 23 22
20 21 -7 24 27 29 23 23
22 22 -7 23 25 28 22 21
20 20 -9 20 22 26 20 19
20 20 -10 18 19 26 19 18
20 22 -8 19 20 28 21 20
18 22 -8 21 22 28 22 20
16 22 -8 21 21 27 21 19
17 20 -8 18 18 24 19 17
15 18 -7 18 17 23 19 17
15 19 -8 16 15 20 17 17
17 22 -5 18 16 21 18 19
18 23 -3 18 16 20 18 19
11 16 -2 17 16 21 17 18
5 10 -3 15 14 20 14 14
8 14 -3 14 13 18 12 11
11 19 1 17 15 19 13 12
7 18 0 17 14 17 12 10
3 13 0 15 12 15 10 9
5 11 -3 13 10 13 9 8
9 12 -2 11 9 13 9 10
6 13 -2 10 8 11 7 10
1 11 0 10 7 10 6 8
1 10 1 10 7 10 5 6
5 15 3 10 8 11 6 6
5 16 5 10 9 13 6 8
3 12 3 9 7 11 4 5
3 9 2 8 5 9 2 2
3 9 2 9 6 9 2 1
1 6 1 7 4 7 -2 -3
1 2 0 5 1 4 -4 -4
4 1 -2 3 -2 3 -5 -5
7 5 2 5 2 5 -2 -3
4 6 4 5 3 6 0 0
0 2 4 5 3 6 0 0
-3 0 4 5 3 6 -2 1
-4 1 3 4 2 5 -3 0
-3 2 4 4 1 5 -5 0
3 4 3 3 -3 3 -7 -3
4 3 3 2 -3 3 -7 -4
0 1 1 1 -4 2 -8 -6
-4 0 2 2 -3 3 -7 -6
-5 0 2 1 -3 2 -9 -7
-6 -4 1 1 -5 1 -9 -8
-5 -5 1 0 -5 1 -8 -7
-3 -2 3 1 -4 3 -6 -5
-3 0 4 1 -4 2 -6 -5
-4 0 5 2 -3 3 -6 -5
-3 -3 4 1 -4 1 -8 -6
-4 -6 4 1 -6 -2 -9 -8
-5 -6 4 1 -5 0 -9 -8
-2 -2 3 1 -5 -2 -9 -8
1 2 5 2 -4 1 -7 -6
-2 1 5 2 -4 2 -7 -6
-10 -6 4 0 -5 1 -8 -8
-16 -13 1 -4 -8 -3 -11 -9
-15 -13 2 -3 -7 -4 -11 -8
-9 -3 6 3 -3 0 -8 -6
-4 4 9 6 -2 1 -6 -5
-5 -3 8 5 -2 0 -7 -6
-8 -11 5 3 -4 -4 -10 -8
-10 -12 5 2 -5 -4 -11 -8
-9 -6 7 4 -3 -3 -10 -7
-2 1 7 4 -2 -4 -10 -8
1 0 5 2 -4 -5 -11 -10
-5 -7 5 2 -4 -5 -11 -10
-9 -8 7 4 -3 -5 -10 -8
-7 -8 6 2 -6 -7 -11 -9
-6 -9 3 -2 -10 -11 -13 -8
-7 -9 3 -3 -10 -11 -13 -7
-7 -4 7 2 -6 -6 -9 -4
-7 -2 8 4 -4 -5 -8 -4
-10 -4 8 4 -4 -6 -9 -5
-10 -4 6 3 -5 -7 -10 -7
-9 -6 4 1 -6 -8 -12 -9
-7 -9 3 0 -8 -9 -14 -12
-3 -5 5 2 -6 -7 -13 -11
4 3 7 4 -5 -6 -11 -8
5 4 7 5 -4 -5 -9 -6
-2 -3 6 4 -5 -7 -10 -7
-5 -7 5 2 -5 -9 -12 -8
0 -4 5 2 -5 -8 -12 -8
2 -2 6 3 -4 -6 -10 -6
-7 -6 6 3 -3 -5 -8 -5
-15 -10 4 1 -5 -7 -9 -6
-11 -7 4 0 -7 -9 -10 -7
-7 -4 5 2 -6 -8 -8 -5
-8 -6 5 3 -7 -8 -8 -5
-9 -3 5 3 -7 -8 -7 -4
-4 3 7 4 -5 -6 -6 -3
1 3 5 2 -6 -6 -7 -5
-3 0 3 1 -6 -7 -8 -5
-6 -2 4 1 -5 -5 -6 -4
-7 -3 3 2 -5 -5 -6 -5
-7 -5 2 1 -6 -6 -8 -6
-8 -4 2 2 -5 -5 -7 -5
-9 0 4 4 -3 -3 -4 -3
-10 0 6 5 -3 -3 -4 -2
-10 -4 5 4 -5 -5 -6 -3
-8 -6 2 2 -6 -6 -7 -4
-9 -7 1 0 -6 -5 -7 -4
-6 -4 1 0 -6 -6 -7 -3
-2 1 3 2 -5 -5 -5 -2
-4 -2 3 2 -5 -4 -4 -3
-8 -6 3 3 -3 -2 -2 -2
-3 0 4 4 -2 0 -2 0
6 8 4 4 -2 0 -2 0
4 9 1 3 -4 -3 -4 -3
-8 4 2 2 -4 -2 -3 -2
-12 -2 2 0 -5 -4 -4 -3
-9 -2 1 -2 -6 -6 -6 -6
-2 3 1 0 -5 -4 -4 -4
7 10 4 2 -2 0 0 1
10 10 5 3 0 1 2 3
6 3 3 2 -4 -3 0 2
1 -4 0 -2 -6 -6 -4 -2
0 -6 0 -3 -8 -6 -7 -4
-3 -7 -3 -4 -9 -7 -8 -5
-6 -5 -2 -4 -8 -6 -6 -5
-6 0 0 -3 -6 -5 -5 -3
-6 2 1 -2 -5 -4 -4 0
-5 1 1 -3 -6 -7 -6 -2
-2 1 2 -2 -7 -8 -6 -3
1 1 2 -2 -6 -8 -7 -3
-2 -3 2 -2 -5 -7 -6 -4
-3 -4 0 -5 -8 -8 -7 -6
-6 -4 -2 -6 -9 -8 -7 -6
-8 -2 -2 -5 -9 -7 -6 -4
-4 3 2 -3 -6 -4 -3 0
-3 2 2 -3 -5 -4 -3 1
-8 -5 -2 -6 -9 -7 -6 -2
-9 -8 0 -7 -11 -9 -6 0
-3 -4 0 -7 -10 -7 -4 1
1 1 3 -4 -7 -5 -3 1
-3 -3 1 -5 -8 -7 -5 -2
-7 -7 1 -5 -9 -8 -7 -3
-10 -7 1 -4 -9 -8 -7 -3
-11 -4 2 -4 -10 -8 -7 -3
-8 3 3 -2 -9 -7 -5 -2
-2 7 5 -2 -7 -6 -3 1
-2 4 4 -2 -7 -7 -3 1
-5 -5 2 -5 -10 -10 -6 -3
-6 -6 0 -6 -11 -12 -8 -4
-3 -2 2 -5 -10 -12 -8 -3
-3 0 1 -6 -12 -13 -8 -4
-9 -8 0 -7 -13 -13 -8 -5
-9 -11 -3 -9 -15 -14 -11 -7
0 -6 -2 -8 -14 -13 -9 -6
4 1 3 -6 -11 -11 -7 -4
3 1 2 -7 -12 -12 -9 -5
2 0 1 -8 -14 -14 -10 -6
-4 -3 0 -8 -15 -15 -11 -7
-11 -6 1 -7 -13 -13 -10 -6
-11 -5 1 -7 -12 -12 -10 -6
-2 3 2 -5 -10 -10 -7 -5
3 6 4 -3 -8 -8 -5 -3
0 3 4 -4 -8 -8 -6 -3
-4 2 4 -5 -10 -10 -7 -3
-4 3 6 -3 -8 -8 -4 -2
-6 4 6 -3 -7 -8 -3 0
-8 4 6 -3 -7 -8 -3 1
-3 7 6 -2 -6 -8 -3 1
5 10 6 -2 -5 -6 -2 1
4 9 3 -4 -7 -7 -3 0
0 8 2 -6 -10 -8 -4 0
0 10 2 -6 -11 -9 -5 -2
3 10 2 -5 -9 -8 -6 -3
3 10 2 -5 -8 -8 -6 -3
0 8 2 -5 -9 -8 -5 -2
-2 8 2 -7 -10 -9 -7 -3
1 13 3 -4 -8 -8 -6 -3
0 19 4 -2 -5 -6 -4 0
-7 18 5 0 -3 -4 0 3
-8 17 2 -4 -5 -5 -2 3
-5 19 1 -4 -4 -2 2 7
-3 22 0 -4 -4 0 5 9
-3 23 0 -5 -6 -3 5 9
-3 20 0 -6 -9 -5 3 7
-2 16 0 -7 -10 -6 2 5
2 15 -3 -8 -10 -7 1 5
5 19 -2 -6 -7 -4 3 6
6 25 -2 -5 -5 -3 5 8
3 24 -2 -5 -5 -2 7 11
-3 16 -4 -8 -7 -4 4 10
-4 13 -6 -9 -8 -5 4 9
6 18 -6 -8 -8 -5 5 10
18 23 -7 -10 -10 -7 3 10
19 24 -8 -12 -12 -9 1 8
13 23 -8 -11 -12 -9 1 7
7 21 -8 -11 -11 -9 1 6
5 15 -9 -12 -13 -11 -2 4
2 10 -7 -11 -13 -11 -2 3
4 11 -3 -8 -11 -10 0 4
6 11 0 -6 -10 -9 1 5
2 3 0 -8 -12 -11 -3 3
-5 -8 -3 -11 -16 -15 -8 -3
-9 -10 0 -10 -16 -15 -9 -5
-8 -6 2 -8 -12 -13 -6 -3
-7 -3 2 -8 -14 -13 -7 -4
-6 -4 2 -9 -15 -14 -7 -4
-3 -3 3 -9 -15 -15 -7 -4
-4 -4 2 -9 -14 -15 -9 -6
-10 -8 1 -9 -15 -16 -11 -8
-13 -9 1 -10 -16 -18 -12 -9
-12 -9 0 -11 -17 -19 -14 -12
-13 -10 1 -11 -16 -19 -14 -11
-12 -8 1 -10 -16 -17 -13 -9
-10 -7 3 -9 -15 -15 -11 -8
-11 -9 2 -10 -17 -17 -12 -8
-12 -12 1 -10 -17 -18 -11 -8
-10 -10 2 -10 -17 -17 -11 -7
-6 -9 3 -10 -17 -17 -10 -5
-2 -8 0 -12 -19 -19 -11 -7
-4 -7 0 -11 -17 -17 -11 -7
-9 -9 0 -12 -17 -17 -12 -9
-11 -11 -2 -13 -19 -18 -12 -11
-9 -11 -2 -13 -20 -19 -13 -11
-4 -10 -2 -13 -19 -18 -13 -12
-2 -9 0 -12 -19 -17 -13 -11
-5 -6 3 -10 -16 -16 -10 -9
-10 -8 3 -9 -15 -15 -10 -8
-15 -12 1 -12 -18 -17 -13 -10
-16 -11 2 -11 -17 -18 -13 -10
-14 -9 4 -7 -13 -16 -12 -8
-10 -9 6 -2 -9 -15 -13 -10
-5 -9 10 7 0 -11 -13 -11
-5 -7 16 18 11 -4 -12 -11
-10 -11 22 28 21 5 -8 -12
-12 -20 23 33 30 16 -2 -10
-9 -25 22 39 40 33 9 -5
3 -20 22 50 56 56 23 1
19 -9 24 65 79 85 43 10
35 7 24 78 106 120 68 27
48 22 14 79 125 159 100 50
59 32 -6 61 132 198 134 72
70 40 -32 31 130 236 167 93
88 52 -57 0 122 277 200 114
106 65 -78 -35 111 318 236 137
117 72 -95 -66 98 354 267 154
119 70 -104 -80 94 381 285 163
115 59 -103 -83 96 394 287 159
110 39 -99 -85 94 387 271 144
102 16 -93 -88 84 358 238 119
89 -9 -87 -89 65 309 194 91
74 -31 -80 -94 38 246 143 60
58 -37 -77 -105 2 176 97 36
38 -29 -81 -126 -44 100 58 22
14 -19 -85 -145 -89 25 24 11
-7 -11 -86 -160 -126 -41 -11 -4
-19 4 -85 -171 -150 -92 -38 -16
-24 18 -82 -172 -158 -117 -54 -22
-24 23 -75 -158 -148 -118 -53 -21
-27 18 -66 -138 -130 -108 -47 -20
-29 6 -62 -118 -113 -99 -41 -21
-26 -3 -55 -98 -93 -89 -37 -20
-19 -3 -43 -75 -72 -77 -31 -17
-15 -4 -30 -58 -58 -70 -27 -16
-17 -7 -24 -47 -49 -66 -27 -17
-14 -4 -18 -37 -39 -56 -25 -15
-4 7 -13 -30 -32 -50 -23 -14
1 8 -10 -26 -28 -49 -22 -14
-10 -4 -11 -27 -28 -51 -25 -16
-20 -10 -12 -28 -29 -53 -27 -19
-16 -8 -9 -25 -26 -50 -25 -17
-9 -5 -4 -20 -22 -47 -22 -15
-7 -6 -3 -18 -20 -46 -22 -15
-10 -9 2 -13 -18 -44 -21 -12
-11 -13 3 -11 -18 -46 -21 -12
-10 -17 2 -12 -19 -50 -23 -14
-11 -19 1 -12 -19 -51 -24 -16
-12 -17 2 -11 -17 -49 -23 -17
-10 -10 3 -10 -14 -46 -22 -16
-8 -6 5 -9 -12 -44 -20 -14
-11 -9 2 -11 -14 -45 -22 -16
-18 -15 0 -14 -17 -46 -23 -18
-15 -13 2 -12 -16 -45 -21 -14
-7 -7 6 -8 -13 -41 -18 -10
-4 -7 8 -6 -12 -40 -17 -10
-7 -10 8 -6 -12 -43 -19 -13
-10 -14 5 -8 -15 -47 -23 -16
-14 -17 4 -8 -15 -48 -23 -16
-15 -16 2 -9 -14 -47 -24 -17
-9 -12 1 -9 -13 -45 -23 -17
-4 -9 2 -9 -12 -43 -22 -17
-9 -10 3 -9 -13 -44 -22 -18
-14 -11 4 -9 -14 -44 -22 -17
-14 -9 6 -7 -12 -41 -20 -15
-12 -9 7 -4 -12 -39 -19 -13
-10 -9 5 -4 -13 -40 -18 -13
-8 -11 5 -5 -13 -41 -18 -13
-5 -12 4 -6 -12 -43 -18 -13
-6 -13 3 -7 -12 -44 -20 -15
-6 -12 2 -9 -12 -44 -20 -16
-7 -10 4 -7 -10 -41 -18 -14
-10 -8 5 -5 -9 -39 -16 -12
-12 -7 5 -5 -9 -39 -17 -12
-9 -5 6 -4 -8 -38 -16 -11
-7 -6 5 -5 -10 -40 -18 -12
-10 -14 2 -7 -12 -45 -21 -15
-11 -17 3 -6 -12 -46 -21 -15
-8 -11 3 -5 -11 -45 -20 -13
-6 -9 3 -6 -10 -45 -20 -13
-8 -12 0 -9 -13 -47 -23 -17
-9 -12 0 -10 -14 -48 -24 -18
-6 -9 2 -8 -11 -43 -21 -15
-6 -8 3 -6 -10 -39 -18 -13
-8 -8 2 -6 -11 -40 -19 -14
-8 -7 4 -4 -11 -41 -19 -12
-4 -7 8 0 -8 -39 -18 -11
-3 -8 10 2 -5 -37 -16 -10
-4 -6 9 2 -3 -36 -15 -9
-5 -5 7 0 -3 -35 -15 -10
-9 -9 4 -3 -5 -36 -17 -12
-12 -13 2 -6 -7 -38 -19 -14
-10 -11 2 -6 -8 -38 -20 -15
-10 -7 6 -2 -3 -34 -17 -11
-9 -4 7 1 -3 -34 -17 -11
-4 2 8 3 -2 -33 -17 -10
0 2 8 4 0 -33 -17 -10
-5 -5 4 2 -3 -35 -18 -13
-10 -11 1 -2 -4 -37 -21 -16
-9 -10 2 0 -2 -35 -19 -14
-5 -4 5 2 2 -32 -16 -11
-2 2 4 3 3 -30 -14 -10
-4 0 4 3 3 -29 -13 -9
-8 -4 4 3 2 -29 -13 -9
-7 -3 5 6 3 -29 -14 -9
-5 0 7 9 5 -28 -14 -9
-5 -3 7 11 6 -28 -15 -10
-4 -5 5 10 6 -29 -16 -12
-2 -5 5 10 7 -28 -16 -13
-2 -4 7 12 11 -25 -13 -10
-2 -3 8 13 12 -23 -11 -8
0 -3 5 12 11 -24 -12 -9
-3 -6 5 11 11 -23 -13 -9
-6 -7 6 13 12 -22 -11 -6
-4 -2 7 16 14 -21 -8 -3
2 1 8 18 15 -21 -7 -3
4 1 7 18 15 -23 -10 -5
7 3 7 19 16 -23 -11 -7
9 6 7 21 18 -22 -9 -7
8 6 6 21 20 -20 -9 -5
9 5 5 22 21 -17 -8 -4
11 7 5 22 24 -13 -5 -2
8 9 7 24 26 -10 -2 2
1 6 7 25 27 -9 -2 3
-4 1 4 24 24 -13 -5 -2
4 3 2 24 23 -13 -5 -3
17 13 5 27 27 -9 0 1
16 15 5 28 27 -9 1 3
6 7 3 26 27 -9 2 4
3 6 3 27 30 -6 5 7
8 10 4 27 32 -3 8 10
12 15 4 29 35 2 12 11
15 19 5 29 35 6 14 12
16 19 5 29 34 6 16 12
14 18 3 27 30 5 16 11
13 17 3 28 30 7 17 12
13 14 3 28 30 9 17 13
16 15 -3 26 29 6 15 11
19 20 -3 25 29 6 15 11
20 23 -3 23 29 7 15 11
17 21 -3 22 30 8 16 12
16 19 -5 20 28 8 17 12
17 20 -5 19 27 9 19 13
17 19 -4 20 27 11 21 15
14 19 -5 19 24 9 20 13
14 20 -6 17 22 8 18 12
17 21 -6 17 23 9 18 15
19 20 -7 15 22 8 17 14
16 18 -9 13 20 6 14 12
15 20 -9 12 20 5 13 11
19 23 -9 10 19 5 12 11
19 23 -10 8 17 4 12 11
15 24 -9 8 17 5 12 11
14 26 -6 10 17 6 14 13
17 26 -5 9 14 4 13 13
14 21 -5 9 13 3 12 13
10 18 -3 10 13 2 10 11
10 14 -2 10 13 1 10 10
11 11 -4 8 11 -3 7 8
12 10 -3 7 12 -2 6 8
12 13 0 7 14 0 7 9
9 15 1 8 16 2 8 9
6 14 1 7 13 1 6 7
8 15 2 6 10 -2 5 6
9 16 2 4 8 -6 2 4
5 11 1 1 4 -11 -3 0
1 5 1 1 3 -12 -5 0
2 8 2 2 5 -11 -4 1
1 8 5 5 9 -7 0 4
-2 6 3 2 7 -10 -3 2
-2 5 2 -2 4 -11 -4 0
0 5 3 -2 4 -10 -4 -2
-2 3 3 -3 3 -10 -5 -4
0 3 5 -2 3 -10 -6 -5
3 9 8 2 5 -8 -6 -4
3 11 9 3 4 -9 -7 -5
-5 3 8 0 3 -12 -10 -8
-10 -4 6 -2 1 -15 -11 -9
-4 4 5 -3 1 -15 -12 -9
5 9 5 -3 1 -13 -11 -8
2 3 4 -5 0 -14 -11 -8
-3 0 2 -7 -3 -15 -12 -9
2 5 3 -7 -3 -15 -11 -10
1 4 5 -6 -2 -14 -12 -10
-9 -5 6 -4 -2 -14 -11 -9
-11 -7 5 -5 -3 -14 -12 -10
-6 -2 5 -5 -2 -14 -13 -10
-2 -2 4 -7 -4 -16 -15 -12
-8 -9 4 -8 -5 -15 -15 -12
-14 -13 3 -9 -6 -16 -17 -15
-11 -9 5 -8 -5 -14 -16 -14
-5 -4 6 -6 -2 -12 -13 -11
-4 -2 5 -7 -3 -12 -14 -11
-4 -4 3 -8 -5 -14 -16 -13
-3 -4 3 -9 -7 -15 -17 -14
-3 -5 6 -5 -4 -13 -15 -12
-3 -5 8 -3 -2 -13 -13 -11
-5 -6 9 -2 0 -13 -12 -10
-9 -9 7 -4 -3 -14 -13 -11
-10 -12 6 -4 -2 -14 -15 -13
-8 -8 7 -3 0 -13 -14 -13
-4 -5 7 -5 -3 -11 -15 -13
-6 -8 5 -7 -6 -13 -17 -15
-10 -13 2 -9 -10 -17 -21 -18
-14 -15 2 -8 -10 -18 -22 -18
-13 -14 3 -7 -9 -18 -21 -16
-7 -9 6 -4 -6 -16 -19 -14
-2 -4 8 -2 -3 -15 -17 -12
-2 -6 8 -3 -4 -17 -18 -13
-6 -11 5 -7 -7 -20 -21 -15
-9 -15 3 -8 -9 -22 -21 -15
-8 -15 3 -8 -8 -20 -19 -15
-7 -13 4 -7 -6 -18 -17 -15
-4 -9 6 -4 -4 -16 -15 -13
-6 -8 8 0 -2 -13 -14 -11
-10 -9 8 -3 -4 -14 -16 -14
-10 -7 8 0 -3 -15 -16 -14
-7 -4 9 2 -2 -16 -16 -13
-6 -5 9 0 -3 -16 -16 -15
-6 -9 7 -4 -5 -18 -18 -17
-9 -10 5 -6 -6 -19 -20 -17
-11 -9 6 -6 -6 -17 -18 -15
-9 -5 7 -5 -5 -15 -16 -13
-7 -4 6 -5 -5 -16 -16 -12
-7 -7 7 -4 -5 -15 -16 -11
-6 -8 7 -4 -5 -16 -15 -10
-6 -9 6 -5 -6 -18 -18 -12
-7 -12 3 -6 -7 -20 -21 -15
-9 -12 2 -6 -7 -19 -20 -16
-10 -9 3 -5 -4 -17 -18 -14
-13 -8 4 -4 -3 -16 -18 -13
-15 -8 6 -4 -2 -13 -16 -12
-15 -8 6 -4 -2 -13 -15 -12
-12 -9 4 -6 -6 -15 -17 -13
-9 -9 4 -5 -8 -16 -17 -12
-7 -7 3 -4 -7 -15 -15 -11
-5 -4 4 -3 -5 -14 -15 -11
-3 -2 5 -2 -5 -14 -16 -11
-5 -4 4 -4 -6 -16 -17 -12
-8 -5 3 -5 -7 -17 -17 -13
-6 0 4 -4 -6 -16 -16 -12
-3 1 3 -4 -5 -14 -14 -11
-5 -4 2 -6 -6 -15 -14 -11
-8 -7 2 -5 -6 -13 -12 -9
-8 -6 3 -4 -5 -11 -10 -8
-7 -5 4 -2 -4 -10 -10 -8
-6 -4 4 -2 -4 -11 -11 -8
-7 -6 3 -3 -5 -13 -13 -9
-8 -8 1 -5 -6 -15 -14 -11
-5 -7 2 -5 -4 -13 -14 -11
-2 -2 3 -4 -2 -10 -13 -10
-3 3 4 -4 -3 -8 -11 -9
-4 5 4 -3 -4 -7 -10 -8
-3 5 5 0 -3 -6 -9 -7
-5 1 4 0 -3 -7 -9 -7
-10 -6 1 -4 -6 -11 -11 -9
-11 -9 0 -5 -7 -12 -12 -8
-9 -9 1 -4 -6 -12 -12 -8
-7 -10 0 -6 -6 -13 -12 -8
-3 -9 0 -6 -6 -12 -11 -8
3 -3 3 -3 -4 -8 -8 -5
0 1 3 -2 -2 -6 -7 -4
-8 -4 2 -4 -3 -6 -8 -7
-10 -6 0 -7 -7 -8 -10 -8
-8 -5 0 -7 -8 -8 -10 -7
-6 -7 -2 -8 -10 -10 -12 -8
-6 -9 -2 -9 -11 -12 -13 -9
-5 -6 0 -9 -10 -13 -12 -9
-4 -4 0 -7 -9 -11 -12 -8
-10 -6 -2 -8 -9 -10 -12 -8
-17 -9 -3 -10 -10 -12 -13 -9
-17 -9 -4 -10 -11 -12 -13 -9
-10 -6 0 -8 -9 -11 -13 -8
-4 -4 4 -5 -7 -8 -11 -6
-3 -6 3 -6 -9 -10 -12 -8
-6 -8 1 -8 -11 -12 -13 -9
-9 -9 0 -9 -11 -13 -13 -9
-10 -12 -2 -8 -11 -13 -12 -9
-8 -11 -2 -9 -10 -13 -12 -9
-5 -8 -3 -10 -11 -13 -13 -10
-5 -7 -2 -9 -11 -12 -12 -8
-9 -9 0 -9 -10 -11 -10 -6
-10 -8 1 -9 -10 -9 -9 -5
-4 -6 -2 -10 -11 -9 -10 -6
1 -7 -2 -10 -11 -11 -11 -7
1 -8 -2 -10 -12 -12 -12 -9
-4 -8 -3 -11 -13 -14 -13 -10
-8 -7 -3 -10 -13 -15 -14 -11
-10 -6 -2 -10 -12 -15 -14 -10
-7 -3 -2 -10 -11 -13 -14 -10
-3 -4 0 -9 -10 -11 -12 -10
-3 -6 -2 -9 -11 -11 -13 -10
-7 -6 0 -11 -13 -11 -13 -11
-9 -5 0 -9 -12 -10 -12 -9
-8 -7 -2 -9 -12 -11 -12 -9
-5 -9 -2 -8 -11 -12 -12 -9
-2 -6 0 -6 -10 -11 -12 -10
0 2 1 -5 -8 -10 -11 -9
0 6 3 -4 -7 -8 -9 -7
1 6 3 -4 -7 -7 -8 -5
0 4 3 -4 -7 -7 -7 -4
-6 0 2 -5 -8 -8 -8 -4
-10 -2 0 -6 -8 -8 -8 -5
-8 4 1 -6 -7 -6 -7 -4
-2 6 1 -6 -8 -7 -7 -3
0 5 0 -7 -10 -9 -9 -3
-4 3 1 -6 -10 -10 -9 -3
-8 2 0 -7 -10 -12 -10 -5
-9 2 0 -8 -9 -12 -10 -5
-8 4 0 -7 -8 -9 -8 -4
-6 7 -2 -6 -6 -7 -7 -2
0 10 -2 -5 -6 -6 -7 -2
3 15 2 -3 -3 -3 -5 0
-2 17 2 -2 -2 -2 -4 0
-3 20 2 -2 0 1 -2 1
4 24 -3 -5 -4 -2 -4 1
5 21 -6 -8 -7 -5 -6 0
-2 16 -8 -10 -9 -8 -8 -2
-4 18 -6 -9 -8 -7 -6 2
1 23 -3 -6 -5 -3 -2 6
3 19 -5 -7 -5 -3 -2 5
2 14 -9 -11 -8 -5 -4 2
3 15 -11 -13 -10 -6 -4 2
6 20 -13 -14 -12 -7 -3 3
8 24 -12 -13 -12 -6 -2 5
8 26 -11 -12 -11 -4 0 6
7 25 -11 -9 -9 -3 3 7
5 22 -10 -10 -10 -3 3 6
4 18 -11 -12 -11 -4 1 4
3 13 -12 -13 -11 -5 0 3
0 6 -11 -11 -11 -6 -2 3
-2 3 -10 -11 -12 -6 -2 3
3 5 -7 -9 -10 -4 0 4
3 6 -5 -6 -8 -3 -2 3
-3 1 -6 -7 -9 -5 -6 -2
0 0 -6 -8 -12 -8 -9 -6
5 4 -4 -8 -12 -9 -11 -7
1 3 -2 -8 -13 -11 -12 -8
-10 -5 -3 -10 -14 -13 -14 -9
-14 -8 -5 -12 -16 -13 -14 -10
-8 -2 -2 -10 -14 -11 -11 -7
0 4 0 -9 -12 -9 -9 -5
-7 -5 -3 -10 -14 -11 -11 -6
-13 -12 -5 -12 -17 -13 -14 -9
-13 -11 -4 -11 -16 -13 -13 -8
-12 -7 0 -8 -13 -11 -11 -6
-14 -7 1 -8 -13 -12 -12 -7
-12 -9 0 -9 -14 -14 -13 -8
-8 -8 -2 -11 -16 -16 -15 -11
-6 -8 -3 -12 -17 -16 -15 -12
-9 -10 -3 -12 -19 -15 -15 -12
-11 -14 -3 -12 -18 -14 -14 -10
-9 -15 -2 -11 -17 -13 -13 -9
-5 -13 0 -10 -16 -13 -12 -8
-7 -14 -2 -12 -19 -15 -15 -11
-12 -17 -4 -13 -20 -16 -17 -13
-12 -15 -4 -11 -18 -14 -17 -13
-12 -11 -2 -8 -14 -12 -13 -9
-14 -10 0 -8 -15 -12 -14 -9
-15 -11 -3 -10 -17 -13 -16 -12
-13 -12 -2 -10 -17 -13 -16 -12
-10 -12 0 -11 -17 -13 -15 -12
-9 -12 0 -11 -18 -14 -15 -12
-10 -13 2 -9 -17 -13 -14 -10
-11 -13 3 -7 -16 -14 -16 -12
-11 -13 6 -2 -12 -15 -18 -14
-9 -13 10 8 -5 -13 -18 -14
-7 -14 14 17 6 -7 -18 -15
-6 -15 21 28 20 5 -12 -14
0 -11 26 40 35 22 -2 -9
6 -9 25 48 49 40 12 -2
8 -12 25 56 63 64 27 6
10 -12 24 69 84 91 44 14
24 -3 21 80 106 125 67 28
46 16 10 78 123 163 99 50
65 35 -8 61 133 205 135 74
75 50 -31 32 135 246 170 98
80 56 -58 -4 126 286 202 117
86 59 -85 -44 108 324 234 137
94 61 -102 -71 96 361 263 153
103 64 -109 -82 96 392 283 164
116 67 -107 -83 101 408 288 164
125 59 -100 -83 101 403 276 152
113 30 -94 -86 92 379 245 130
87 -9 -92 -91 70 331 198 98
65 -36 -89 -99 39 268 146 65
51 -39 -85 -110 3 197 100 43
36 -23 -86 -128 -40 123 62 28
19 -8 -88 -146 -85 52 29 17
1 1 -90 -162 -124 -16 -8 2
-16 6 -90 -173 -151 -67 -36 -12
-28 10 -87 -172 -160 -94 -53 -19
-31 13 -78 -155 -148 -95 -54 -20
-25 11 -68 -133 -128 -80 -47 -18
-21 3 -62 -110 -106 -66 -39 -16
-22 -5 -53 -88 -86 -54 -34 -16
-23 -5 -39 -67 -67 -44 -30 -15
-20 -3 -28 -52 -55 -38 -27 -15
-15 0 -20 -40 -45 -34 -24 -14
-12 2 -14 -30 -34 -29 -22 -13
-13 1 -11 -26 -30 -28 -22 -13
-11 -4 -9 -24 -28 -27 -22 -12
-6 -6 -6 -21 -25 -25 -21 -11
-6 -6 -4 -17 -22 -23 -21 -12
-11 -9 -3 -16 -22 -23 -22 -14
-14 -12 -2 -14 -21 -23 -22 -15
-11 -13 1 -12 -20 -24 -23 -15
-10 -14 3 -9 -18 -23 -22 -15
-14 -17 5 -6 -16 -22 -22 -14
-18 -20 5 -5 -15 -23 -23 -15
-19 -18 6 -3 -13 -23 -22 -14
-18 -13 6 -3 -12 -22 -21 -14
-15 -11 5 -4 -13 -22 -21 -14
-11 -10 5 -5 -13 -22 -21 -14
-6 -7 7 -2 -11 -19 -19 -11
-7 -7 9 3 -10 -17 -17 -9
-13 -14 6 0 -12 -20 -20 -13
-16 -18 5 -3 -15 -23 -22 -14
-13 -16 5 -2 -16 -23 -22 -14
-10 -11 7 1 -13 -21 -20 -13
-7 -8 9 4 -10 -18 -16 -10
-8 -9 9 4 -9 -18 -17 -11
-10 -14 7 0 -12 -20 -20 -15
-12 -15 6 -2 -12 -20 -21 -17
-14 -14 7 -2 -13 -19 -20 -15
-15 -14 7 0 -13 -20 -21 -16
-17 -13 10 2 -11 -20 -20 -15
-19 -13 12 5 -9 -18 -18 -13
-21 -18 9 3 -11 -20 -20 -15
-17 -21 6 0 -14 -24 -24 -17
-9 -14 6 1 -13 -24 -23 -15
-6 -7 9 5 -9 -19 -18 -10
-12 -10 10 5 -7 -17 -17 -8
-12 -14 8 3 -10 -20 -19 -10
-5 -9 10 5 -9 -18 -16 -9
-2 -4 11 6 -8 -17 -14 -7
-8 -7 10 5 -9 -17 -14 -8
-10 -10 9 4 -10 -20 -16 -9
-9 -8 11 8 -7 -18 -14 -7
-10 -9 12 9 -6 -18 -15 -8
-16 -12 11 8 -6 -20 -16 -9
-18 -16 9 6 -7 -21 -18 -11
-15 -15 8 4 -8 -22 -19 -13
-9 -11 8 4 -7 -20 -18 -12
-7 -10 9 5 -6 -17 -15 -11
-10 -12 8 4 -8 -19 -17 -13
-14 -14 8 6 -7 -19 -18 -13
-11 -10 9 7 -7 -19 -17 -13
-5 -3 14 12 -2 -16 -14 -11
0 4 15 13 1 -16 -15 -11
-9 -3 14 13 1 -16 -15 -10
-21 -13 8 9 -5 -18 -19 -14
-23 -17 7 7 -6 -19 -20 -15
-13 -11 8 8 -5 -17 -19 -13
-6 -8 10 11 -2 -15 -15 -10
-6 -9 9 11 -4 -15 -15 -11
-7 -9 11 13 0 -15 -13 -9
-8 -7 14 17 3 -11 -11 -6
-11 -9 13 16 2 -12 -12 -7
-11 -11 12 14 1 -13 -14 -8
-10 -10 11 13 1 -15 -15 -9
-10 -11 11 13 2 -14 -14 -8
-10 -10 11 14 3 -12 -14 -8
-6 -6 12 17 5 -10 -13 -7
-5 -4 11 18 6 -9 -12 -8
-10 -8 11 18 5 -9 -12 -8
-8 -7 11 18 5 -9 -13 -9
0 0 14 22 9 -6 -11 -6
2 4 15 24 10 -5 -8 -4
-4 0 13 24 10 -8 -10 -5
-5 -4 10 22 8 -10 -13 -8
-3 -4 10 22 9 -9 -13 -9
-4 -6 10 23 10 -7 -12 -10
-5 -7 9 23 10 -8 -12 -10
1 -2 10 24 11 -6 -11 -9
4 3 13 28 15 -2 -9 -6
0 1 14 31 17 1 -7 -3
-3 2 14 32 18 0 -7 -3
1 5 14 32 19 0 -8 -5
0 3 13 32 19 -2 -9 -6
-8 -5 11 31 19 -3 -10 -7
-10 -6 13 35 23 3 -6 -3
2 4 17 40 30 9 2 3
9 9 16 42 32 11 4 5
6 6 12 38 29 8 2 4
3 5 11 36 26 7 1 4
3 8 13 38 28 10 3 5
1 6 13 40 28 11 4 6
0 0 13 40 29 12 4 6
5 2 12 40 30 12 3 6
7 8 12 44 33 14 6 8
3 9 11 44 33 16 6 8
0 10 10 42 33 17 6 8
0 13 10 42 34 19 9 9
4 15 9 42 33 21 10 10
11 17 6 38 30 20 10 9
15 17 4 37 29 19 10 10
14 16 5 38 30 20 12 12
14 15 5 38 31 22 15 14
16 18 4 38 33 24 16 16
16 20 4 40 34 27 19 18
15 20 4 40 34 29 20 19
13 21 4 38 34 30 20 18
10 20 3 36 33 29 20 18
7 17 2 34 31 29 20 17
10 20 2 34 30 29 20 18
16 25 2 33 28 28 20 19
18 25 0 30 25 26 19 17
19 24 1 30 25 27 20 18
22 29 5 33 28 31 23 21
22 30 3 31 28 29 22 21
16 21 -3 26 23 25 17 16
8 13 -5 23 20 22 15 13
7 15 -6 21 18 20 14 12
15 23 -4 22 18 22 16 14
20 28 0 23 19 23 17 15
15 26 1 23 19 23 16 15
10 24 1 23 18 21 16 15
13 27 1 23 16 20 14 14
14 28 3 23 17 21 14 13
11 26 2 21 16 19 13 11
8 23 2 20 15 18 12 12
5 19 4 21 17 19 14 14
3 18 5 20 16 19 13 13
3 16 4 17 13 17 11 10
1 12 4 16 10 15 8 8
0 11 6 17 9 13 6 5
2 16 8 18 11 14 6 5
2 17 9 17 9 12 4 4
-3 10 7 14 6 8 0 2
-6 7 5 13 4 6 -3 1
-2 13 8 15 6 9 1 4
2 17 10 17 9 12 4 5
2 15 10 15 9 11 3 3
-2 11 7 12 6 8 0 0
-4 9 7 11 3 7 -3 -2
-4 9 7 10 2 6 -4 -4
-5 8 8 10 3 5 -5 -3
-7 4 10 11 3 5 -5 0
-7 0 9 9 1 2 -7 -3
-3 0 6 6 -3 -3 -11 -7
-2 3 6 7 -2 -2 -11 -6
-5 3 6 7 -2 0 -10 -6
-6 2 5 6 -3 0 -10 -7
-3 4 6 7 -3 2 -8 -7
-8 2 8 7 -2 3 -7 -6
-13 -6 7 5 -4 2 -9 -7
-10 -5 7 4 -5 0 -10 -8
-4 3 9 5 -4 1 -10 -7
-5 6 11 7 -2 1 -10 -6
-8 5 10 6 -3 -2 -10 -6
-4 4 7 2 -6 -5 -12 -9
1 5 6 1 -7 -5 -12 -9
1 6 6 0 -8 -5 -13 -10
-2 3 7 2 -6 -3 -11 -9
-4 0 7 2 -6 -3 -11 -9
-8 -2 6 1 -8 -5 -12 -11
-11 -3 6 2 -8 -4 -13 -10
-12 -6 6 1 -9 -4 -13 -11
-10 -8 5 0 -9 -5 -15 -12
-8 -4 6 1 -7 -5 -14 -12
-8 1 9 4 -4 -2 -12 -10
-8 2 9 3 -5 -2 -12 -11
-10 -3 8 1 -6 -4 -13 -11
-10 -4 8 2 -6 -4 -13 -10
-10 -3 9 3 -6 -3 -12 -9
-11 -4 10 5 -6 -3 -11 -8
-13 -8 8 2 -9 -7 -13 -10
-13 -12 7 1 -10 -9 -15 -12
-10 -14 7 0 -10 -10 -17 -13
-10 -12 8 1 -9 -9 -16 -13
-11 -10 5 0 -10 -10 -18 -15
-10 -8 7 1 -9 -9 -18 -14
-5 -3 8 2 -7 -8 -17 -13
-6 -3 10 4 -6 -6 -15 -12
-11 -7 9 4 -7 -7 -14 -12
-14 -8 9 4 -7 -8 -15 -13
-10 -4 11 6 -5 -7 -14 -11
-6 -2 10 4 -7 -10 -15 -12
-7 -7 6 0 -12 -15 -19 -16
-5 -8 5 -2 -13 -16 -21 -18
5 1 11 4 -7 -11 -16 -12
7 5 14 7 -4 -6 -11 -8
-5 -2 11 5 -6 -7 -12 -9
-10 -7 10 4 -7 -6 -12 -8
-8 -8 9 4 -7 -7 -13 -9
-7 -9 8 3 -10 -11 -16 -11
-7 -9 6 1 -12 -15 -19 -14
-6 -6 8 1 -10 -14 -19 -14
-8 -3 9 3 -8 -12 -16 -12
-10 -3 7 1 -9 -12 -16 -11
-8 -2 7 1 -9 -13 -15 -11
-4 2 10 4 -6 -10 -13 -7
-4 0 11 4 -4 -9 -12 -7
-10 -9 7 0 -8 -11 -14 -10
-11 -8 6 -2 -10 -12 -15 -11
-6 2 9 3 -7 -9 -11 -8
-6 4 7 2 -8 -11 -12 -11
-14 -5 5 -2 -10 -13 -15 -13
-16 -5 5 -2 -10 -13 -16 -12
-9 2 8 4 -6 -9 -13 -9
-7 2 8 4 -6 -8 -12 -8
-11 -5 7 2 -6 -8 -13 -9
-12 -8 8 2 -7 -8 -13 -9
-10 -7 8 3 -7 -8 -12 -8
-7 -4 7 2 -8 -10 -12 -9
-5 -2 6 1 -9 -10 -12 -9
-6 1 7 2 -8 -9 -11 -8
-9 2 7 3 -6 -7 -8 -5
-8 3 7 4 -5 -7 -7 -5
-3 5 7 4 -5 -7 -7 -5
-2 5 7 3 -6 -7 -8 -5
-5 0 6 1 -6 -7 -9 -6
-10 -5 4 0 -8 -8 -10 -7
-10 -3 5 0 -8 -7 -9 -6
-7 4 5 1 -8 -6 -7 -6
-4 3 5 1 -8 -8 -8 -6
-6 -2 6 0 -9 -10 -9 -7
-8 -5 6 1 -8 -10 -8 -7
-5 -3 6 1 -7 -9 -7 -6
4 2 5 1 -7 -9 -7 -6
7 8 7 3 -5 -7 -6 -4
2 7 8 4 -5 -6 -6 -3
-6 0 5 0 -9 -10 -10 -7
-6 -5 3 -2 -10 -10 -10 -8
-4 -3 4 1 -9 -8 -9 -7
-7 -2 5 2 -7 -6 -6 -4
-9 -5 4 2 -7 -7 -7 -3
-7 -5 4 1 -8 -8 -8 -5
-4 -2 5 2 -7 -8 -7 -5
-5 2 5 0 -9 -9 -9 -5
-6 2 5 0 -9 -10 -9 -5
-4 5 4 0 -9 -10 -9 -6
2 8 5 2 -8 -8 -8 -6
-2 6 6 2 -6 -6 -6 -4
-10 -2 4 0 -8 -8 -7 -5
-14 -6 1 -3 -11 -11 -10 -7
-11 -6 4 -3 -11 -11 -8 -4
-7 -3 4 -4 -13 -14 -9 -3
-8 -3 4 -4 -13 -14 -10 -3
-14 -7 1 -6 -14 -14 -12 -6
-16 -7 0 -8 -15 -14 -14 -7
-9 1 0 -6 -15 -14 -14 -8
6 13 1 -4 -13 -13 -12 -8
14 19 1 -4 -13 -13 -11 -7
7 14 -3 -6 -15 -15 -13 -9
-8 6 -3 -6 -15 -15 -13 -9
-13 2 1 -4 -12 -12 -10 -6
-11 -2 3 0 -11 -11 -8 -4
-11 -4 3 0 -10 -12 -9 -5
-10 -6 1 -4 -12 -13 -11 -7
-5 -5 -2 -6 -14 -15 -14 -9
1 -4 -4 -8 -17 -17 -16 -11
0 -4 -3 -8 -17 -16 -15 -10
0 -2 1 -6 -15 -13 -12 -8
2 4 3 -5 -13 -10 -10 -5
3 6 1 -6 -14 -13 -11 -6
0 3 0 -7 -15 -14 -12 -8
-4 0 1 -6 -16 -15 -12 -9
-5 -2 0 -7 -16 -16 -14 -11
-6 -4 0 -7 -15 -15 -12 -10
-9 -6 1 -6 -12 -13 -10 -8
-11 -9 0 -6 -12 -14 -11 -8
-9 -7 -2 -7 -14 -15 -12 -8
0 6 0 -6 -13 -14 -10 -6
8 19 4 -2 -9 -10 -6 0
6 19 5 -2 -9 -9 -6 0
-5 11 4 -2 -10 -10 -6 -2
-8 7 4 -2 -10 -9 -6 -3
-5 7 3 0 -9 -9 -5 -3
-4 6 1 -2 -9 -9 -6 -3
0 10 0 -2 -9 -9 -6 -2
7 19 2 0 -9 -8 -6 1
8 21 3 0 -9 -9 -6 0
2 13 2 -3 -10 -11 -7 -3
-5 7 -2 -5 -12 -12 -10 -4
-4 11 -2 -5 -12 -12 -9 -4
1 17 2 -2 -9 -9 -5 0
1 18 4 0 -7 -8 -5 1
-3 18 3 0 -7 -9 -5 1
-2 22 1 -2 -7 -9 -5 1
1 25 -4 -6 -10 -10 -6 0
0 24 -8 -9 -12 -11 -7 0
-2 22 -9 -8 -11 -9 -6 1
0 23 -6 -6 -8 -6 -3 2
1 23 -4 -5 -7 -6 -2 3
0 23 -5 -6 -9 -8 -2 4
2 25 -5 -6 -9 -9 0 5
6 26 -7 -7 -10 -8 1 6
5 25 -9 -7 -10 -8 2 8
1 23 -10 -7 -10 -8 3 9
4 23 -9 -7 -10 -8 3 9
11 25 -8 -6 -9 -6 3 10
14 26 -9 -8 -9 -6 4 10
11 22 -12 -11 -12 -8 2 8
6 18 -13 -12 -13 -9 1 6
5 18 -11 -9 -11 -7 2 8
7 16 -9 -7 -9 -5 2 8
9 14 -9 -8 -11 -8 -2 4
8 15 -8 -8 -11 -10 -3 3
6 15 -5 -7 -10 -11 -4 2
4 12 -7 -9 -13 -15 -8 -2
1 5 -7 -10 -14 -18 -10 -5
-6 -3 -6 -11 -16 -19 -13 -8
-10 -7 -4 -9 -15 -17 -12 -8
-7 -5 -3 -9 -15 -15 -10 -7
0 2 0 -7 -12 -12 -7 -3
2 6 2 -4 -9 -11 -5 1
-4 2 2 -5 -11 -13 -6 -2
-13 -8 -3 -9 -14 -16 -11 -7
-18 -11 -4 -10 -16 -18 -12 -6
-13 -9 -3 -10 -16 -17 -11 -5
-8 -8 -3 -10 -15 -17 -12 -6
-8 -9 -4 -10 -16 -18 -13 -7
-6 -9 -6 -13 -19 -21 -15 -9
-2 -6 -7 -14 -20 -22 -16 -11
-4 -6 -6 -12 -19 -22 -16 -11
-9 -7 -5 -11 -19 -22 -16 -10
-8 -5 -4 -12 -19 -22 -16 -11
-3 0 -5 -13 -18 -20 -16 -11
1 1 -4 -11 -17 -20 -15 -10
-2 -3 -3 -10 -16 -20 -14 -9
-5 -6 0 -9 -15 -18 -12 -7
-5 -2 1 -6 -12 -16 -10 -5
-2 3 1 -5 -11 -14 -10 -5
-3 -2 -3 -9 -15 -17 -14 -8
-10 -11 -8 -15 -20 -22 -19 -13
-13 -15 -8 -14 -20 -23 -19 -14
-12 -10 -6 -11 -17 -20 -16 -13
-10 -7 -3 -9 -13 -18 -14 -11
-8 -6 -2 -8 -13 -18 -14 -11
-5 -7 1 -5 -10 -17 -15 -12
-4 -8 4 2 -6 -17 -16 -14
-9 -10 7 8 0 -19 -19 -16
-13 -12 12 16 8 -12 -17 -15
-10 -9 18 27 22 2 -11 -11
1 -5 21 36 36 19 0 -7
11 -4 20 45 49 37 11 -2
18 2 22 58 68 63 27 7
26 11 22 74 95 97 49 18
33 17 16 84 120 135 77 34
40 22 1 73 134 174 109 55
51 31 -23 49 138 213 142 77
66 43 -49 16 135 253 174 99
89 61 -68 -16 129 298 212 123
112 82 -86 -47 117 342 248 148
120 88 -103 -72 106 375 274 160
116 75 -113 -88 100 393 283 160
112 60 -111 -90 101 401 280 155
109 42 -103 -89 98 391 264 142
102 17 -96 -90 86 357 228 117
90 -9 -93 -96 60 297 179 85
73 -29 -89 -106 25 226 128 54
56 -31 -90 -122 -18 148 81 31
37 -20 -95 -142 -64 71 45 18
16 -8 -96 -159 -108 1 12 8
-3 5 -93 -170 -142 -60 -19 -4
-14 20 -89 -174 -160 -102 -41 -13
-23 28 -81 -164 -160 -117 -51 -15
-30 20 -75 -149 -148 -115 -52 -18
-33 8 -73 -131 -131 -106 -48 -20
-28 4 -67 -108 -108 -93 -40 -19
-20 3 -55 -85 -87 -81 -34 -17
-15 1 -41 -64 -70 -71 -29 -15
-12 3 -30 -50 -58 -58 -25 -13
-10 5 -24 -40 -50 -53 -24 -13
-12 0 -22 -35 -47 -53 -26 -16
-14 -5 -19 -30 -43 -52 -25 -16
-7 2 -14 -24 -37 -47 -22 -13
6 11 -10 -20 -31 -44 -21 -12
3 9 -6 -16 -27 -40 -19 -11
-10 3 -5 -15 -27 -41 -20 -13
-17 -3 -7 -16 -29 -44 -23 -16
-17 -6 -7 -15 -31 -46 -24 -17
-16 -9 -6 -14 -31 -46 -25 -17
-12 -11 -5 -12 -30 -46 -25 -16
-8 -12 -3 -9 -28 -46 -24 -15
-7 -11 0 -7 -26 -45 -22 -14
-8 -8 1 -5 -23 -41 -20 -12
-9 -5 3 -4 -19 -38 -17 -9
-10 -7 3 -4 -19 -38 -17 -11
-11 -9 0 -7 -23 -40 -19 -13
-12 -9 0 -7 -25 -41 -19 -13
-12 -8 0 -5 -26 -41 -17 -11
-10 -5 2 -3 -24 -38 -15 -10
-7 -3 4 1 -21 -35 -14 -10
-6 -4 5 3 -19 -35 -14 -10
-8 -6 5 3 -18 -35 -13 -9
-10 -7 4 1 -19 -37 -15 -10
-13 -10 1 -3 -23 -41 -19 -13
-13 -13 -2 -5 -25 -44 -20 -14
-6 -9 -2 -5 -25 -41 -19 -13
-2 -7 1 -4 -24 -39 -19 -12
-5 -8 0 -3 -25 -39 -19 -13
-8 -7 1 -2 -25 -39 -18 -12
-7 -4 3 1 -24 -38 -17 -10
-7 -6 2 0 -25 -41 -19 -12
-9 -9 0 -2 -25 -43 -21 -13
-7 -7 0 -2 -24 -40 -19 -12
-5 -4 0 0 -24 -39 -18 -11
-7 -7 0 -2 -24 -39 -18 -11
-7 -9 -2 -3 -24 -38 -17 -12
-7 -7 2 1 -22 -35 -14 -9
-10 -6 3 2 -22 -35 -14 -9
-11 -6 3 3 -22 -36 -14 -9
-13 -7 2 2 -23 -38 -15 -10
-17 -8 2 2 -24 -40 -16 -10
-14 -6 0 0 -25 -43 -18 -13
-6 -2 -2 1 -24 -41 -18 -12
1 2 -2 1 -23 -40 -18 -12
-2 1 0 2 -21 -38 -17 -11
-7 -3 1 3 -20 -37 -17 -11
-9 -4 2 4 -20 -36 -17 -10
-10 -3 0 3 -21 -37 -18 -12
-8 -2 0 2 -22 -38 -18 -13
1 4 3 6 -21 -36 -17 -12
5 4 5 9 -18 -34 -15 -9
-4 -4 3 8 -18 -35 -15 -10
-10 -8 0 5 -20 -38 -18 -13
-7 -5 -2 5 -19 -37 -18 -14
-3 -3 -3 4 -19 -37 -19 -15
-8 -5 -3 4 -20 -37 -19 -15
-10 -4 0 5 -19 -34 -17 -14
-5 1 2 8 -17 -32 -15 -12
-2 3 5 11 -15 -30 -12 -10
1 3 5 14 -14 -29 -11 -8
2 1 6 16 -12 -28 -10 -6
-4 -4 4 15 -12 -28 -12 -7
-8 -8 1 12 -14 -31 -15 -9
-8 -6 -2 11 -14 -31 -16 -9
-9 -4 -2 10 -14 -30 -15 -10
-8 -3 0 11 -12 -28 -13 -8
-4 3 2 14 -11 -26 -11 -7
-3 6 4 18 -9 -24 -10 -6
-5 4 4 19 -9 -24 -10 -6
-4 0 3 19 -9 -24 -11 -8
1 1 2 20 -9 -25 -12 -8
0 0 2 21 -8 -24 -12 -9
1 0 1 21 -8 -25 -13 -11
6 5 4 23 -4 -23 -11 -8
5 8 6 25 0 -21 -8 -6
0 6 5 25 0 -20 -8 -5
-3 5 4 25 0 -19 -7 -4
1 8 5 27 1 -17 -6 -3
1 8 6 30 2 -16 -5 -3
-2 8 5 31 3 -17 -6 -4
0 6 4 31 3 -18 -6 -3
-3 1 2 29 2 -19 -8 -5
-8 -3 2 31 4 -18 -7 -4
-5 5 5 35 9 -13 -3 1
4 15 8 38 14 -8 3 4
3 13 8 39 16 -5 4 5
-6 7 5 38 14 -5 3 3
-5 8 5 37 13 -6 3 3
8 13 5 36 13 -6 4 3
18 16 3 35 11 -6 2 2
16 16 3 38 13 -5 4 4
11 14 3 39 16 -3 6 5
12 14 1 38 16 -3 6 6
12 15 0 36 15 -3 6 7
8 14 -3 35 16 0 7 7
9 17 -4 35 16 2 8 8
16 20 -5 35 15 3 9 9
18 21 -6 34 14 3 10 10
16 21 -6 35 15 5 12 11
16 22 -4 37 17 8 15 14
17 21 -4 37 18 8 15 14
17 20 -4 37 18 9 15 14
18 22 -4 38 20 12 17 15
20 25 -5 36 19 12 17 16
21 27 -6 34 17 12 17 16
20 29 -6 33 17 13 19 18
17 28 -6 32 16 13 19 18
13 22 -9 28 12 10 17 16
12 16 -12 25 9 8 16 13
11 14 -12 26 10 9 17 15
12 17 -11 26 11 10 18 16
14 23 -9 27 11 11 19 18
15 27 -6 28 13 14 21 20
13 26 -7 26 12 13 21 20
10 22 -10 22 9 10 18 17
11 21 -13 18 6 8 16 14
16 23 -13 17 5 8 15 12
19 26 -12 18 4 8 15 12
20 29 -11 18 3 8 16 12
20 29 -9 19 3 7 15 14
16 23 -6 20 3 7 15 16
9 17 -6 19 3 5 13 15
4 14 -5 20 3 6 14 15
5 15 -5 17 2 3 12 14
6 17 -5 15 1 2 10 12
1 16 -4 14 1 3 11 11
-3 14 -4 13 0 3 11 10
1 14 -5 12 -3 1 10 8
6 13 -6 10 -6 -2 7 5
8 13 -6 11 -6 -2 5 4
10 16 -4 11 -5 -3 4 3
12 18 -3 11 -4 -3 3 2
8 15 -3 10 -5 -3 2 2
4 13 -2 11 -4 -4 2 2
4 13 0 9 -6 -6 0 2
0 7 -4 6 -9 -10 -4 -3
-7 1 -5 4 -11 -10 -6 -5
-6 3 -5 3 -12 -10 -6 -6
-4 5 -4 4 -13 -11 -5 -7
-4 7 -3 4 -14 -13 -7 -8
-3 10 0 6 -11 -11 -6 -6
-3 9 1 7 -10 -11 -4 -4
-6 5 1 6 -10 -10 -4 -4
-6 6 -2 4 -11 -11 -6 -5
-5 8 -3 3 -12 -11 -6 -5
-7 3 -2 3 -11 -11 -6 -6
-12 -4 -2 2 -12 -11 -7 -7
-14 -4 1 4 -11 -10 -7 -6
-10 2 2 4 -11 -10 -7 -5
-5 4 2 4 -12 -10 -8 -6
-7 0 -2 3 -14 -12 -10 -8
-11 -7 -4 -2 -17 -15 -13 -10
-9 -9 -3 -2 -16 -15 -13 -10
0 -4 -2 1 -14 -13 -11 -9
1 0 0 1 -13 -12 -10 -9
-6 -5 0 1 -13 -12 -10 -9
-8 -6 0 0 -14 -12 -10 -9
-8 -4 0 1 -15 -12 -9 -10
-11 -5 -2 0 -16 -13 -10 -9
-13 -6 -2 -2 -18 -14 -12 -11
-10 -5 -2 0 -16 -15 -12 -11
-7 -2 -2 -2 -16 -15 -11 -11
-9 -4 -2 -3 -15 -16 -13 -12
-12 -8 -3 -6 -16 -18 -16 -16
-7 -6 -3 -5 -15 -17 -16 -15
5 -2 -2 -4 -16 -16 -16 -14
5 -4 -2 -3 -17 -17 -16 -14
-2 -7 1 0 -16 -16 -14 -12
-4 -6 3 2 -14 -14 -12 -10
-9 -8 2 2 -14 -14 -12 -9
-16 -12 0 -2 -17 -18 -15 -13
-13 -9 0 0 -16 -18 -15 -13
-7 -5 3 3 -12 -16 -13 -11
-5 -5 3 4 -12 -16 -13 -11
-7 -7 3 3 -12 -17 -13 -11
-9 -8 2 2 -13 -16 -12 -10
-6 -5 2 1 -14 -17 -14 -11
-3 -3 2 1 -16 -18 -14 -12
-6 -4 2 1 -16 -18 -15 -13
-10 -6 1 0 -16 -18 -15 -14
-15 -9 1 0 -16 -20 -16 -15
-17 -10 0 -2 -17 -22 -18 -16
-15 -10 1 -2 -16 -21 -17 -14
-11 -8 1 0 -14 -19 -15 -12
-10 -6 2 2 -12 -16 -13 -12
-8 -5 2 2 -11 -15 -13 -12
-9 -5 4 4 -9 -14 -12 -10
-12 -7 3 2 -11 -15 -12 -11
-17 -10 3 1 -13 -17 -12 -11
-14 -11 2 0 -15 -18 -13 -11
-9 -9 1 0 -16 -21 -15 -12
-9 -8 1 1 -15 -21 -15 -12
-13 -8 0 0 -16 -21 -17 -13
-12 -8 0 -2 -15 -20 -16 -12
-10 -7 2 1 -12 -17 -13 -11
-14 -7 2 0 -12 -15 -13 -12
-17 -9 2 -2 -13 -16 -13 -12
-12 -8 0 -3 -15 -19 -13 -13
-3 -4 0 -2 -15 -18 -13 -12
4 2 2 2 -13 -18 -12 -10
2 2 2 3 -13 -17 -12 -9
-5 -2 2 3 -13 -17 -12 -10
-10 -4 1 2 -13 -16 -12 -9
-10 -4 -2 0 -13 -16 -13 -9
-10 -3 -3 -3 -15 -17 -14 -10
-4 2 -5 -4 -16 -19 -14 -13
1 6 -4 -3 -15 -18 -13 -12
-5 6 0 1 -13 -15 -10 -10
-10 1 0 1 -14 -15 -9 -9
-12 -3 1 2 -14 -15 -10 -9
-13 -7 0 1 -13 -17 -11 -9
-16 -10 1 1 -12 -17 -11 -11
-16 -11 -2 0 -13 -17 -12 -12
-11 -7 -2 1 -12 -16 -11 -11
-6 0 -2 1 -11 -15 -10 -11
-8 1 0 1 -10 -12 -8 -9
-11 -4 -2 -2 -11 -14 -9 -9
-10 -5 -2 -3 -12 -15 -9 -9
-8 -2 -3 -2 -13 -15 -9 -9
-10 -2 -3 0 -12 -14 -9 -7
-9 -2 0 1 -11 -15 -9 -6
-5 3 1 1 -10 -14 -8 -5
-2 4 1 1 -10 -14 -8 -6
0 1 -3 -3 -12 -16 -11 -9
-2 -3 -5 -6 -14 -17 -12 -11
-10 -6 -6 -7 -15 -17 -13 -11
-13 -8 -8 -9 -16 -17 -13 -13
-9 -3 -5 -6 -14 -15 -11 -11
-5 0 -3 -3 -12 -13 -8 -10
-12 -9 -2 -2 -11 -13 -7 -9
-17 -13 -2 0 -10 -12 -7 -7
-11 -7 1 2 -8 -11 -4 -4
-7 -2 -2 -3 -11 -13 -7 -6
-7 -5 -4 -7 -14 -16 -10 -9
1 3 -4 -6 -13 -15 -9 -8
6 9 2 -2 -9 -10 -5 -4
-8 -5 -2 -5 -11 -13 -9 -8
-19 -18 -7 -8 -17 -18 -14 -14
-12 -14 -7 -9 -17 -18 -15 -15
-4 -6 -5 -7 -14 -16 -14 -12
-6 -5 -3 -5 -13 -15 -12 -10
-7 -6 -3 -5 -13 -16 -11 -9
-5 -5 -3 -5 -12 -17 -11 -9
-9 -6 -4 -7 -14 -17 -13 -11
-13 -9 -5 -8 -15 -19 -13 -12
-11 -9 -5 -9 -14 -17 -12 -11
-5 -5 -4 -7 -12 -15 -10 -11
-3 0 -3 -6 -12 -14 -9 -9
-8 -3 0 -4 -11 -14 -7 -8
-14 -9 -3 -6 -13 -16 -10 -9
-16 -11 -5 -8 -15 -18 -12 -12
-11 -9 -5 -9 -14 -18 -12 -11
-8 -8 -3 -7 -13 -17 -10 -10
-10 -9 -5 -9 -14 -20 -12 -11
-12 -9 -7 -12 -17 -21 -14 -12
-11 -6 -4 -9 -13 -17 -11 -8
-9 0 -3 -8 -12 -16 -10 -9
-4 0 -2 -7 -12 -16 -10 -9
-3 -2 -2 -8 -13 -16 -11 -9
-9 -6 -2 -7 -14 -16 -10 -9
-13 -10 -4 -9 -15 -19 -12 -12
-12 -11 -6 -11 -16 -20 -14 -13
-9 -10 -6 -10 -15 -18 -12 -12
-9 -8 -3 -9 -13 -16 -11 -10
-10 -6 -4 -10 -13 -17 -11 -10
-12 -6 -4 -9 -13 -17 -11 -10
-15 -11 -6 -11 -15 -19 -12 -12
-14 -14 -7 -12 -17 -21 -14 -14
-10 -9 -5 -10 -16 -19 -13 -13
-6 -3 -3 -9 -15 -18 -13 -11
-8 -4 -3 -9 -15 -17 -13 -11
-8 -6 -3 -9 -14 -18 -13 -11
-5 -7 -3 -9 -14 -17 -13 -10
-4 -8 -3 -9 -13 -16 -13 -10
-4 -4 -3 -10 -12 -17 -13 -11
-6 1 -4 -10 -12 -17 -12 -11
-12 -5 -3 -9 -12 -15 -11 -10
-15 -9 -6 -11 -15 -17 -13 -12
-10 -9 -6 -11 -15 -17 -12 -11
-8 -6 -2 -8 -13 -15 -10 -9
-8 -5 -2 -6 -10 -14 -10 -10
-7 -3 -2 -7 -10 -13 -9 -10
-4 0 -2 -5 -7 -12 -7 -8
-3 2 1 -3 -5 -11 -5 -6
-5 -2 1 -5 -6 -12 -7 -5
-7 -4 -2 -9 -9 -14 -8 -6
-4 0 -3 -9 -11 -15 -8 -6
-4 3 -2 -8 -9 -14 -7 -4
-8 3 -2 -7 -9 -14 -7 -6
-10 0 -3 -7 -10 -15 -7 -7
-10 0 -2 -7 -9 -15 -8 -7
-9 2 -3 -7 -8 -15 -8 -6
-9 5 -2 -6 -6 -14 -8 -4
-6 11 0 -4 -4 -11 -7 -5
0 15 2 -4 -3 -10 -7 -6
1 15 1 -5 -4 -11 -9 -7
-4 11 -2 -6 -6 -12 -8 -8
-6 10 -5 -9 -8 -13 -8 -9
-7 11 -5 -9 -7 -10 -6 -7
-5 15 -4 -6 -4 -6 0 1
2 19 -2 -4 -2 -4 4 6
3 17 -5 -8 -5 -7 2 4
-7 11 -7 -10 -6 -10 -2 1
-10 12 -6 -9 -4 -9 -3 1
-3 20 -5 -7 -2 -7 0 2
2 24 -6 -7 -2 -6 1 2
-4 20 -9 -8 -4 -6 1 1
-4 16 -11 -11 -6 -7 0 0
3 17 -10 -10 -5 -6 1 3
7 19 -9 -7 -3 -4 4 6
3 16 -11 -8 -4 -5 4 5
-2 8 -16 -13 -9 -10 0 1
1 4 -18 -15 -11 -12 -4 -2
8 8 -15 -13 -9 -11 -3 0
9 9 -12 -11 -6 -8 -2 2
3 3 -12 -12 -7 -10 -4 -2
0 -2 -11 -12 -8 -11 -5 -5
0 3 -7 -8 -6 -9 -4 -4
-3 4 -5 -8 -6 -9 -5 -5
-7 0 -4 -8 -7 -11 -8 -8
-7 -4 -4 -9 -8 -13 -10 -10
-4 -5 -3 -8 -8 -14 -11 -10
-4 -5 -4 -10 -9 -15 -12 -11
-7 -6 -5 -11 -11 -16 -13 -12
-8 -6 -4 -10 -10 -15 -12 -12
-11 -9 -5 -12 -11 -16 -12 -13
-15 -12 -6 -14 -12 -18 -14 -14
-13 -13 -6 -13 -12 -17 -14 -13
-10 -12 -3 -10 -10 -15 -12 -11
-8 -10 0 -8 -8 -14 -11 -9
-3 -7 -2 -9 -9 -15 -12 -11
-3 -5 -2 -9 -10 -16 -12 -11
-12 -10 -4 -11 -12 -18 -14 -13
-23 -19 -7 -15 -14 -20 -17 -16
-23 -21 -8 -17 -14 -20 -18 -19
-17 -16 -7 -17 -14 -18 -18 -19
-12 -11 -4 -14 -12 -15 -16 -17
-8 -6 0 -10 -9 -12 -13 -11
1 0 0 -9 -8 -11 -12 -11
0 -8 -2 -11 -9 -12 -12 -11
-12 -20 -6 -14 -12 -15 -15 -14
-21 -26 -7 -16 -15 -18 -17 -14
-21 -21 -6 -15 -13 -17 -16 -13
-15 -16 -3 -13 -10 -14 -13 -12
-10 -13 -3 -12 -10 -14 -14 -11
-8 -13 -4 -13 -12 -16 -15 -12
-12 -17 -5 -14 -12 -16 -15 -14
-19 -20 -3 -11 -10 -16 -15 -15
-17 -17 2 -5 -6 -13 -15 -14
-12 -12 4 0 -2 -13 -16 -16
-12 -11 9 8 7 -10 -16 -17
-10 -13 14 18 17 -2 -13 -15
-9 -16 19 29 30 11 -8 -13
-8 -18 20 35 40 24 0 -10
-3 -19 19 43 54 43 12 -5
6 -16 21 55 71 67 28 3
13 -8 22 71 98 100 50 14
26 6 18 82 122 140 79 33
46 21 4 75 137 181 113 56
63 35 -19 52 141 219 145 76
77 47 -43 22 139 258 178 97
92 57 -65 -13 129 295 210 117
106 67 -87 -52 111 331 241 136
116 71 -102 -77 100 364 267 151
118 69 -109 -87 100 388 280 156
110 54 -107 -90 101 393 278 149
98 27 -103 -93 94 371 256 131
87 1 -99 -97 78 332 218 104
77 -19 -94 -101 55 278 169 74
62 -34 -86 -106 25 213 119 46
43 -36 -82 -119 -13 141 77 25
27 -26 -86 -140 -58 65 42 13
9 -15 -90 -160 -102 -7 6 1
-11 -5 -91 -173 -135 -66 -27 -13
-24 10 -88 -177 -150 -104 -49 -21
-30 17 -82 -170 -150 -118 -55 -24
-30 13 -77 -153 -137 -114 -53 -25
-26 6 -70 -131 -116 -101 -44 -22
-22 2 -62 -107 -95 -88 -35 -18
-21 -4 -51 -85 -73 -77 -30 -16
-21 -9 -38 -66 -58 -71 -27 -16
-20 -11 -28 -51 -46 -66 -24 -15
-18 -9 -23 -41 -37 -64 -24 -16
-16 -6 -17 -33 -29 -62 -22 -15
-13 -4 -13 -27 -23 -60 -21 -13
-14 -7 -11 -25 -20 -60 -21 -15
-16 -10 -9 -23 -18 -61 -22 -17
-16 -14 -7 -21 -17 -61 -21 -17
-13 -13 -5 -18 -14 -60 -20 -17
-10 -9 -2 -14 -12 -59 -18 -15
-8 -6 2 -9 -9 -57 -15 -12
-5 -6 1 -9 -10 -60 -17 -13
-10 -14 -3 -11 -13 -64 -22 -17
-20 -22 -2 -11 -13 -60 -24 -18
-24 -21 3 -8 -9 -56 -21 -16
-17 -16 4 -7 -7 -54 -20 -15
-10 -13 4 -8 -6 -53 -19 -14
-10 -15 4 -7 -6 -51 -17 -13
-12 -17 3 -7 -8 -51 -18 -15
-13 -16 3 -7 -8 -52 -19 -15
-13 -16 4 -6 -9 -53 -19 -15
-15 -17 4 -5 -9 -54 -19 -14
-10 -15 4 -5 -8 -54 -19 -14
-5 -13 6 -3 -5 -53 -18 -13
-9 -14 5 -4 -6 -53 -19 -14
-16 -17 4 -5 -5 -53 -19 -14
-17 -16 5 -5 -5 -53 -18 -13
-15 -15 5 -4 -4 -50 -17 -12
-14 -14 6 -3 -3 -47 -15 -11
-13 -16 5 -4 -5 -50 -17 -13
-14 -20 4 -5 -8 -53 -19 -14
-13 -19 3 -6 -10 -55 -20 -15
-9 -11 4 -4 -8 -54 -19 -14
-5 -7 7 0 -5 -52 -18 -12
-5 -9 6 0 -5 -51 -18 -12
-12 -15 3 -4 -6 -52 -20 -14
-18 -16 5 -3 -5 -51 -19 -14
-16 -13 5 0 -2 -48 -17 -13
-10 -9 8 3 2 -44 -13 -10
-8 -8 8 2 1 -45 -13 -10
-9 -10 6 1 -3 -48 -13 -12
-10 -11 4 1 -5 -50 -15 -13
-10 -14 3 0 -5 -51 -18 -14
-13 -17 3 1 -5 -51 -18 -14
-14 -18 5 4 -2 -50 -16 -12
-10 -16 6 4 1 -49 -15 -11
-7 -14 7 4 2 -47 -14 -10
-6 -12 7 4 2 -44 -13 -8
-11 -12 5 2 -2 -47 -15 -11
-16 -14 3 0 -3 -49 -18 -14
-12 -10 2 2 -2 -48 -18 -14
-6 -6 4 4 1 -47 -16 -13
-6 -9 5 5 1 -47 -16 -13
-10 -12 4 4 1 -48 -17 -13
-12 -12 5 5 3 -47 -16 -12
-8 -9 8 8 7 -43 -14 -8
-7 -9 8 8 7 -40 -13 -8
-11 -10 6 7 5 -40 -14 -9
-14 -13 5 6 3 -41 -16 -11
-13 -15 3 5 2 -43 -18 -14
-12 -15 2 5 1 -44 -19 -16
-9 -13 5 9 5 -41 -16 -12
-6 -9 7 12 7 -39 -14 -11
-10 -9 6 12 7 -40 -15 -12
-12 -9 3 10 7 -43 -17 -14
-11 -8 6 11 9 -39 -14 -11
-8 -7 9 14 12 -36 -12 -9
-6 -7 9 16 15 -32 -9 -6
-6 -8 10 18 15 -30 -7 -5
-9 -9 10 17 15 -31 -9 -6
-11 -9 9 18 15 -31 -9 -6
-7 -5 10 21 16 -30 -8 -5
-3 -3 10 22 18 -30 -8 -6
-6 -6 9 21 17 -32 -10 -9
-9 -9 7 20 17 -33 -12 -10
-5 -8 8 22 19 -31 -11 -9
3 -3 8 23 20 -29 -9 -8
2 -2 6 21 20 -29 -9 -8
-4 -3 5 21 19 -29 -10 -9
-4 -5 6 22 21 -28 -10 -9
-3 -5 8 25 23 -26 -8 -7
-4 -5 8 26 22 -25 -8 -6
-4 -4 9 29 24 -24 -6 -4
1 -3 9 30 26 -24 -5 -4
2 -3 9 31 28 -22 -4 -2
0 -3 7 30 28 -22 -5 -4
-4 -4 8 31 31 -19 -2 0
-3 -4 7 33 33 -17 1 3
2 -2 8 35 34 -13 3 4
5 -2 8 36 35 -13 3 3
3 -3 7 36 35 -14 2 2
3 0 8 39 37 -12 4 4
8 9 11 43 40 -9 7 7
12 15 13 44 43 -8 9 10
5 11 10 42 40 -9 8 10
-8 2 6 37 37 -10 7 8
-9 -4 4 35 37 -9 7 7
2 3 5 37 40 -6 10 9
12 11 5 39 43 -3 12 11
15 13 4 38 40 -2 12 11
11 8 3 38 38 -2 12 10
7 2 2 38 39 0 13 11
7 4 -2 36 38 -2 13 11
12 10 -3 35 38 0 14 12
17 16 -2 36 39 2 16 13
17 19 0 36 42 4 17 15
15 18 -2 35 40 5 17 16
15 17 -3 34 39 6 18 17
13 15 -2 33 38 7 19 17
9 10 -5 30 35 5 17 15
10 9 -6 28 33 3 15 15
19 15 -3 31 35 6 18 19
24 18 0 33 36 8 21 21
17 12 -4 30 33 4 18 17
16 12 -5 27 31 3 16 15
23 21 -3 28 33 5 19 18
22 20 0 27 34 6 21 21
14 11 -3 24 30 4 18 18
13 11 -4 23 28 3 17 16
20 17 -3 22 27 4 16 15
17 19 0 24 29 5 18 17
4 13 -2 23 27 2 16 16
-4 6 -3 21 24 -2 13 14
4 10 -2 20 24 -3 12 14
13 17 2 22 27 1 15 16
13 17 2 21 27 1 14 15
9 11 1 18 24 0 12 12
7 9 -2 15 22 -3 10 9
6 10 -3 13 19 -4 8 6
5 11 0 13 20 -5 7 6
5 12 1 14 20 -6 6 6
2 11 3 15 20 -6 6 6
0 9 4 15 20 -6 6 7
-2 5 3 14 17 -8 5 6
0 2 2 12 15 -10 3 4
2 3 3 12 16 -9 3 4
0 3 5 14 17 -7 4 5
-8 1 4 12 15 -9 2 4
-9 0 2 8 11 -12 -2 1
-4 4 1 5 8 -14 -4 -2
0 7 2 5 7 -15 -5 -2
-6 8 5 8 10 -13 -3 0
-8 5 5 8 10 -13 -3 0
-6 2 5 8 11 -13 -4 0
2 2 3 6 10 -15 -6 -4
8 2 2 5 9 -15 -7 -6
5 1 3 5 9 -14 -6 -5
-6 -4 2 4 8 -14 -7 -6
-10 -8 1 1 5 -15 -8 -8
-8 -8 -2 -2 3 -18 -11 -9
-4 -3 0 -2 2 -19 -11 -9
-4 0 2 1 4 -18 -10 -7
-7 -4 3 2 4 -17 -10 -8
-10 -7 2 2 4 -18 -12 -8
-11 -9 2 1 4 -17 -12 -8
-9 -9 3 2 6 -16 -11 -8
-4 -9 2 1 4 -16 -12 -9
-4 -10 2 0 3 -17 -13 -10
-8 -11 2 -2 3 -16 -12 -11
-7 -9 2 -2 3 -15 -12 -10
-6 -7 3 -2 2 -16 -12 -10
-9 -8 3 -2 1 -17 -12 -9
-11 -9 1 -3 0 -20 -13 -10
-9 -7 3 -2 1 -18 -12 -9
-6 -4 3 -2 2 -18 -12 -9
-8 -6 4 1 4 -17 -11 -8
-10 -9 4 1 4 -17 -12 -8
-9 -9 4 1 4 -17 -11 -8
-6 -10 5 0 3 -17 -11 -9
-2 -9 6 2 4 -16 -11 -8
3 -4 7 3 5 -16 -11 -8
-2 -5 6 2 4 -17 -12 -11
-11 -12 3 -2 1 -19 -15 -13
-19 -16 4 -2 1 -20 -15 -11
-22 -16 5 0 3 -20 -14 -11
-20 -14 5 0 3 -19 -15 -12
-16 -12 5 -3 3 -19 -15 -13
-12 -11 5 -2 3 -19 -14 -13
-9 -10 5 0 3 -17 -13 -11
-10 -9 6 0 2 -16 -12 -9
-14 -7 4 -2 1 -19 -13 -9
-15 -9 3 -2 0 -21 -15 -9
-10 -9 1 -3 -2 -23 -16 -11
-2 -6 1 -5 -3 -25 -18 -13
2 -2 3 -4 0 -24 -18 -13
3 1 6 1 4 -21 -15 -10
1 -2 7 3 5 -19 -13 -7
-8 -9 3 0 1 -21 -15 -9
-14 -15 2 -4 -3 -24 -17 -11
-10 -10 4 -2 0 -21 -16 -9
-7 -8 6 1 2 -19 -13 -8
-10 -12 3 -2 -2 -21 -14 -10
-6 -8 5 2 2 -19 -13 -8
5 4 10 6 6 -16 -10 -4
1 0 8 5 6 -17 -10 -5
-13 -13 2 -2 1 -21 -14 -10
-14 -13 1 -4 -2 -22 -15 -11
-5 -4 5 2 4 -17 -10 -7
-2 1 8 4 6 -13 -7 -4
-7 -7 6 3 4 -15 -9 -5
-11 -11 2 0 -2 -19 -13 -8
-11 -9 2 1 -2 -19 -13 -8
-10 -6 5 2 1 -17 -11 -7
-8 -5 4 1 1 -19 -13 -8
-9 -5 5 1 1 -19 -13 -9
-12 -5 5 2 3 -17 -11 -8
-14 -5 4 2 3 -16 -11 -8
-16 -7 3 1 2 -17 -11 -8
-17 -10 2 -2 0 -19 -12 -10
-10 -10 0 -3 -2 -20 -13 -11
3 -4 2 -2 0 -18 -11 -9
7 2 3 0 1 -16 -8 -7
-3 -5 3 0 1 -16 -10 -7
-10 -10 0 -3 -2 -19 -13 -10
-10 -9 0 0 2 -17 -12 -8
-9 -8 2 1 3 -15 -10 -7
-9 -9 2 0 1 -16 -9 -7
-6 -9 2 0 1 -16 -8 -6
-3 -6 1 -2 0 -17 -8 -6
0 -3 0 -3 0 -17 -9 -7
2 3 1 0 1 -16 -8 -6
1 5 4 3 4 -13 -6 -5
-5 2 4 2 3 -14 -7 -6
-9 -3 3 1 2 -16 -9 -7
-10 -5 2 0 1 -17 -11 -6
-8 -5 0 -3 -2 -17 -11 -7
-3 -3 0 -3 -2 -17 -9 -6
1 0 -2 -4 -3 -17 -9 -7
-4 -5 -2 -4 -2 -16 -9 -7
-10 -8 0 -3 -2 -14 -9 -7
-10 -9 0 -2 -2 -14 -9 -7
-10 -13 0 -4 -4 -15 -10 -7
-11 -15 -2 -4 -5 -16 -11 -8
-10 -11 1 -3 -4 -15 -11 -8
-8 -7 4 1 1 -14 -8 -6
-5 -5 3 -2 0 -15 -8 -6
1 -4 2 -4 -3 -17 -9 -7
4 0 2 -4 -2 -16 -9 -7
-4 -2 2 -3 -2 -14 -8 -6
-16 -9 2 -4 -3 -14 -9 -7
-19 -11 0 -4 -5 -15 -10 -8
-11 -8 0 -4 -6 -16 -11 -8
-10 -8 0 -5 -6 -18 -10 -7
-12 -10 1 -4 -5 -17 -10 -6
-9 -9 4 0 -2 -14 -8 -3
-4 -9 1 -4 -5 -16 -10 -6
-6 -14 -2 -7 -6 -16 -11 -8
-6 -12 0 -6 -5 -14 -9 -7
-5 -9 1 -5 -4 -14 -8 -6
-6 -11 0 -7 -7 -16 -11 -8
-7 -12 -2 -8 -9 -18 -12 -8
-2 -9 -2 -7 -10 -19 -14 -10
6 -3 -2 -7 -10 -20 -15 -11
10 4 2 -5 -6 -18 -12 -8
7 2 2 -5 -6 -17 -12 -7
-5 -10 -3 -9 -10 -19 -15 -11
-15 -17 -6 -12 -13 -22 -18 -14
-18 -16 -4 -9 -10 -19 -14 -11
-13 -12 -2 -8 -10 -16 -12 -8
-7 -9 -2 -8 -10 -15 -11 -8
-5 -8 1 -6 -9 -15 -10 -7
-10 -9 0 -6 -8 -14 -11 -8
-13 -12 0 -7 -10 -16 -12 -9
-9 -9 0 -7 -9 -15 -11 -8
-3 -4 3 -5 -6 -13 -9 -5
-4 -4 3 -4 -5 -12 -9 -5
-10 -12 0 -8 -9 -15 -12 -8
-11 -18 -3 -10 -11 -17 -14 -12
-10 -16 -3 -9 -11 -15 -13 -11
-9 -13 0 -8 -11 -15 -11 -9
-9 -12 -2 -9 -12 -16 -12 -9
-9 -12 1 -8 -11 -16 -12 -8
-5 -9 3 -6 -9 -15 -11 -6
-2 -7 1 -7 -10 -17 -13 -7
-6 -10 -2 -10 -12 -19 -15 -10
-13 -15 -2 -10 -12 -18 -15 -11
-15 -13 1 -8 -10 -16 -13 -10
-14 -9 1 -8 -10 -15 -12 -9
-12 -7 1 -7 -10 -14 -12 -10
-8 -6 2 -6 -9 -14 -11 -9
-7 -7 3 -5 -8 -13 -10 -8
-7 -10 2 -6 -9 -13 -11 -8
-2 -9 2 -7 -9 -14 -11 -8
6 -5 2 -7 -8 -13 -11 -7
2 -4 4 -4 -6 -11 -9 -4
-7 -6 5 -4 -5 -10 -8 -3
-7 -6 5 -4 -6 -11 -9 -4
-4 -7 4 -5 -7 -13 -10 -5
-8 -8 1 -6 -8 -14 -10 -5
