I II V1 V2 V3 V4 V5 V6
-1 -14 15 66 29 13 20 18
-4 -15 13 62 26 9 18 16
-10 -16 15 56 25 8 17 16
-17 -16 19 57 26 8 17 17
-22 -22 18 58 24 10 17 17
-25 -23 16 55 21 8 15 16
-23 -24 16 49 17 5 13 14
-24 -25 17 42 14 3 12 12
-27 -28 15 39 11 1 9 11
-31 -30 16 40 9 0 8 13
-33 -26 15 43 8 -2 7 12
-33 -28 16 41 8 -3 6 8
-32 -31 17 38 8 -4 6 8
-37 -32 19 40 8 -6 4 7
-37 -33 16 36 4 -10 1 4
-35 -33 13 31 2 -12 0 2
-35 -33 15 27 -1 -12 1 4
-39 -35 15 22 -4 -11 0 3
-44 -39 14 23 -6 -13 2 3
-43 -37 15 29 -4 -11 1 4
-43 -35 13 28 -4 -12 0 4
-41 -35 13 23 -6 -13 -1 1
-41 -39 11 18 -7 -14 -3 0
-43 -37 12 24 -4 -14 -3 1
-46 -37 13 27 -4 -14 -3 1
-51 -38 13 26 -5 -15 -5 0
-51 -37 14 23 -6 -15 -6 -1
-52 -38 16 24 -6 -14 -6 -1
-52 -42 13 18 -10 -19 -7 -2
-46 -40 13 16 -10 -21 -8 -1
-43 -42 13 15 -12 -22 -11 -4
-35 -42 8 12 -19 -25 -14 -8
-31 -41 9 13 -19 -24 -13 -7
-35 -39 10 14 -14 -23 -13 -7
-40 -39 10 16 -13 -21 -10 -5
-42 -40 9 15 -12 -20 -11 -6
-43 -40 9 15 -13 -20 -11 -7
-43 -40 12 15 -15 -20 -11 -5
-45 -41 11 11 -16 -22 -12 -7
-48 -42 16 15 -14 -19 -9 -5
-52 -44 18 19 -14 -17 -7 -3
-50 -44 16 17 -14 -20 -8 -5
-47 -40 17 13 -18 -20 -10 -6
-52 -37 19 14 -15 -18 -10 -4
-53 -41 18 17 -15 -18 -8 -5
-45 -39 17 18 -15 -18 -9 -4
-37 -38 14 17 -15 -20 -10 -4
-39 -39 16 17 -17 -20 -11 -4
-47 -44 15 15 -18 -19 -11 -7
-46 -39 16 15 -16 -19 -12 -7
-45 -38 16 15 -17 -19 -11 -7
-47 -42 17 17 -16 -18 -11 -7
-43 -42 18 19 -16 -16 -9 -4
-43 -39 23 25 -11 -13 -6 0
-43 -36 22 27 -12 -14 -7 -5
-42 -36 21 26 -13 -16 -9 -7
-43 -36 24 26 -11 -16 -8 -5
-43 -37 24 21 -14 -15 -10 -7
-38 -36 21 18 -16 -17 -11 -8
-40 -36 20 17 -17 -16 -10 -2
-48 -36 21 13 -17 -14 -8 -3
-53 -36 23 19 -13 -8 -4 -1
-56 -37 22 27 -9 -7 -3 0
-54 -34 22 30 -7 -7 -3 1
-45 -34 19 25 -6 -9 -5 -2
-42 -34 17 19 -10 -10 -5 -4
-38 -32 18 20 -11 -9 -4 -4
-42 -32 20 21 -8 -8 -4 -3
-44 -32 20 23 -9 -7 -4 -2
-45 -33 22 25 -8 -6 -3 0
-47 -36 20 23 -9 -9 -5 -4
-41 -33 19 20 -7 -10 -7 -4
-30 -29 17 18 -9 -10 -7 -3
-29 -30 17 17 -10 -12 -9 -5
-29 -31 16 17 -9 -10 -8 -4
-31 -29 17 19 -8 -9 -5 -2
-36 -27 18 22 -6 -8 -3 -1
-34 -25 20 24 -5 -6 -3 0
-36 -30 17 20 -8 -7 -4 -3
-37 -28 20 22 -6 -7 -3 -2
-37 -26 21 23 -5 -7 -2 -2
-40 -28 21 22 -5 -7 -3 -3
-37 -24 20 22 -4 -5 -2 -1
-35 -25 21 23 -2 -5 -2 -1
-32 -28 20 21 -4 -7 -3 -4
-32 -27 19 20 -4 -7 -1 0
-35 -26 18 19 -3 -6 0 1
-34 -22 20 21 -3 -3 0 -2
-33 -22 16 17 -7 -6 -2 -5
-32 -26 17 20 -5 -6 -2 -3
-31 -23 20 25 -1 -5 1 -2
-34 -25 18 22 -4 -7 -2 -5
-35 -28 17 20 -4 -7 -1 -4
-36 -24 21 21 -4 -6 0 2
-39 -25 22 20 -2 -6 0 1
-37 -22 22 23 1 -5 2 -3
-36 -21 22 23 -2 -5 3 -2
-38 -22 23 20 -4 -5 1 -4
-39 -23 21 16 -5 -6 1 -4
-42 -21 22 17 -4 -4 2 1
-42 -21 24 22 0 -2 5 0
-38 -23 22 21 2 -4 3 -1
-31 -22 19 18 -6 -8 0 -3
-25 -17 21 20 -3 -6 2 -3
-29 -23 19 16 -4 -7 -1 -5
-31 -18 17 11 -7 -8 0 -6
-29 -16 18 13 -4 -4 4 -2
-35 -20 18 15 -5 -5 3 -2
-36 -26 16 12 -8 -7 2 -5
-29 -23 15 13 -9 -8 0 -6
-29 -21 14 13 -8 -9 0 -8
-27 -18 16 12 -6 -9 -1 -7
-26 -21 17 9 -7 -7 1 -5
-30 -20 19 11 -4 -5 3 -4
-33 -19 18 15 -4 -4 4 -3
-32 -19 17 14 -5 -4 5 -3
-32 -18 18 14 -5 -2 7 -1
-31 -17 19 14 -6 -3 5 -3
-32 -21 14 9 -11 -7 2 -7
-26 -19 14 10 -12 -7 1 -7
-28 -19 15 11 -8 -6 1 -6
-30 -19 16 11 -10 -6 2 -7
-31 -18 17 11 -9 -5 4 -4
-32 -19 17 9 -9 -4 3 -6
-29 -18 17 8 -9 -2 3 -5
-26 -16 15 8 -9 -2 3 -6
-27 -18 14 7 -10 -5 1 -7
-27 -16 17 5 -10 -4 3 -7
-32 -19 14 0 -14 -7 1 -5
-35 -18 13 3 -12 -4 4 -4
-39 -18 15 7 -9 -1 7 -4
-40 -20 14 7 -10 -1 7 -4
-35 -20 11 7 -12 -4 4 -4
-34 -19 13 8 -10 -1 6 -4
-33 -19 14 9 -9 -1 7 -4
-25 -16 10 6 -13 -5 3 -7
-22 -17 9 4 -14 -7 0 -4
-22 -17 11 5 -15 -6 0 -3
-20 -16 12 5 -15 -5 0 -8
-28 -21 10 0 -15 -7 0 -10
-25 -18 10 1 -13 -6 1 -8
-28 -17 12 4 -13 -2 4 -5
-30 -18 9 1 -15 -4 3 -6
-30 -16 12 5 -12 -1 4 -6
-30 -15 13 9 -10 1 7 -4
-27 -11 12 8 -10 1 7 -3
-26 -9 14 8 -8 2 7 -2
-26 -11 14 6 -10 -1 5 -6
-24 -12 12 5 -12 -2 6 -5
-24 -11 14 4 -11 -1 6 -4
-25 -10 14 4 -10 -1 5 -5
-24 -11 14 3 -12 -2 5 -7
-20 -11 10 1 -14 -3 3 -6
-21 -8 13 4 -10 1 6 -4
-21 -6 15 7 -9 2 7 -4
-23 -5 13 8 -11 0 6 -5
-22 -3 14 9 -8 1 7 -2
-21 -3 15 8 -8 1 7 -3
-14 -4 10 2 -12 -1 5 -6
-7 0 11 -1 -10 0 7 -5
-9 -2 10 3 -10 -1 4 -6
-7 -4 7 1 -13 -3 1 -9
-5 -5 6 0 -13 -3 1 -10
-9 -2 8 3 -13 -2 3 -8
-18 -5 11 6 -9 2 6 -4
-19 -2 11 4 -9 4 8 -3
-18 -1 8 1 -10 1 4 -6
-19 -1 10 3 -10 0 7 -6
-18 -3 8 3 -13 0 6 -5
-15 -2 9 3 -12 2 8 -2
-10 1 9 3 -12 1 7 -1
-11 3 8 2 -14 -1 8 -6
-10 -1 8 2 -13 1 8 -3
-11 0 10 4 -10 3 10 -3
-9 3 10 3 -11 2 9 -4
-13 3 10 5 -11 3 10 -3
-16 1 9 5 -10 2 10 -3
-17 2 11 5 -9 2 11 -3
-15 3 11 1 -11 3 10 -3
-15 1 10 0 -12 3 10 -3
-7 3 10 2 -11 3 11 -3
-8 2 9 3 -12 3 12 -4
-7 4 9 1 -11 3 12 -2
-5 9 11 4 -9 5 15 -1
-7 9 12 5 -8 6 16 -1
-7 8 10 3 -9 5 16 -1
-4 10 9 -1 -8 4 14 -2
-11 8 8 -2 -12 2 13 -3
-14 5 10 -1 -13 3 13 0
-17 7 13 4 -10 6 16 1
-21 7 15 7 -7 8 16 2
-20 7 14 7 -6 9 18 2
-19 6 13 2 -8 8 17 5
-17 10 16 5 -5 10 20 3
-14 10 15 4 -7 9 17 1
0 7 7 -2 -14 3 12 -5
12 9 4 -5 -16 -1 9 -7
11 11 4 -5 -16 -1 10 -8
7 8 4 -8 -18 0 11 -6
7 12 4 -9 -19 1 12 -6
1 10 5 -7 -14 2 13 -5
-2 8 4 -6 -17 1 14 -6
-3 8 7 -2 -14 4 16 -2
-6 11 8 6 -11 7 18 -1
-7 11 9 7 -8 7 17 -1
-8 12 10 5 -8 8 18 0
-7 13 12 -2 -9 7 18 1
-7 13 11 -5 -13 6 17 2
-7 9 9 -5 -15 5 17 0
-2 9 7 -4 -15 4 18 -3
-5 7 9 -1 -12 5 18 -3
-7 8 6 -3 -15 2 14 -5
-1 10 6 -7 -17 1 14 -4
-1 12 7 -5 -15 2 16 -4
-5 12 9 -5 -13 2 16 -3
-1 14 8 -5 -14 3 17 -2
0 9 7 -4 -13 4 17 -2
-3 10 11 -2 -12 5 19 0
1 10 11 -3 -14 3 16 0
2 10 8 -3 -17 0 12 -1
2 12 10 -3 -15 2 15 -2
2 8 9 -7 -16 1 15 -2
0 7 7 -11 -18 -1 12 -4
-1 9 9 -6 -13 2 15 -1
-6 5 11 -3 -12 2 14 1
-2 9 11 -1 -12 3 16 0
1 15 13 0 -10 5 18 1
-4 10 11 -4 -10 1 13 -3
2 8 8 -5 -14 -1 13 -4
4 10 8 -3 -14 -1 13 -3
-2 8 9 -5 -15 0 14 -3
3 11 7 -5 -14 -1 12 -3
4 8 5 -7 -17 -2 11 -4
0 6 7 -3 -15 0 12 -2
2 10 9 -2 -13 2 14 0
0 7 8 -1 -14 1 13 0
3 13 7 -4 -14 -1 11 -3
2 14 8 -3 -17 -2 10 -2
2 7 8 -5 -17 -1 10 -1
4 11 11 -2 -15 1 12 2
5 12 13 0 -13 0 13 2
6 11 15 1 -13 0 13 3
5 11 17 2 -11 3 14 7
-3 17 21 7 -9 7 18 7
-4 16 23 7 -6 10 22 9
-7 18 26 6 -6 11 22 10
-16 15 29 8 -3 13 23 12
-16 18 30 12 -1 13 23 12
-8 20 27 11 -2 12 21 13
4 23 26 11 -3 11 20 11
17 25 24 8 -6 6 16 8
17 21 25 9 -7 7 16 11
13 19 30 14 -4 11 17 10
14 20 34 19 -1 11 17 10
12 20 35 18 2 11 17 10
10 23 34 18 3 13 18 11
7 17 32 16 0 14 19 12
8 16 28 16 0 14 20 11
12 15 23 16 -2 13 20 11
13 16 18 18 -2 12 17 10
12 16 18 18 -2 12 19 10
10 13 15 13 -7 9 17 8
9 13 15 7 -8 10 17 10
5 15 22 12 -2 14 22 13
9 18 19 14 -4 13 21 14
5 16 17 15 -6 11 20 14
0 16 15 13 -7 8 18 12
2 13 16 11 -8 9 18 15
7 11 12 5 -14 5 15 13
9 10 11 4 -16 4 15 10
5 11 10 3 -16 5 16 11
6 11 9 0 -18 5 17 11
11 15 6 -6 -19 5 16 10
20 21 7 -2 -16 6 18 11
20 20 7 3 -13 9 20 15
11 16 8 4 -13 8 20 15
13 18 8 2 -13 8 20 15
13 16 4 -1 -17 3 18 12
7 10 3 -2 -19 4 19 13
6 6 5 0 -18 5 18 13
8 7 4 -2 -19 3 16 12
10 6 3 -3 -20 2 15 12
10 5 3 -2 -21 2 16 12
10 7 5 2 -18 3 18 13
9 9 5 3 -16 3 18 13
8 7 5 1 -17 2 16 12
6 7 8 2 -18 3 17 13
4 9 11 4 -18 3 16 15
2 4 9 1 -20 2 16 10
3 3 12 1 -20 2 16 10
-2 2 12 0 -20 1 13 9
-7 -1 14 3 -20 1 13 10
-6 -2 15 3 -20 1 14 11
-9 -2 16 5 -19 0 13 10
-11 0 15 6 -20 -1 12 9
-10 -3 16 4 -21 -1 11 7
-6 -6 15 4 -22 -1 10 7
-3 -3 16 5 -21 -1 9 7
-5 -4 16 3 -21 -1 9 6
-8 -4 19 4 -19 0 9 6
-7 -5 17 5 -23 -2 8 4
-3 -8 13 2 -25 -5 6 2
3 -1 10 -2 -26 -7 3 0
3 -2 13 -1 -24 -6 5 1
-4 -8 13 0 -24 -5 5 2
-9 -9 15 2 -21 -2 8 3
-11 -7 17 6 -18 0 11 6
-12 -5 18 10 -18 0 9 5
-9 -2 18 11 -19 0 10 5
-10 -6 19 12 -19 -1 9 4
-6 -5 20 9 -21 -3 7 2
1 -6 16 3 -24 -5 4 0
6 -13 13 0 -30 -8 1 -3
8 -11 12 1 -27 -8 1 -3
3 -7 12 4 -25 -8 2 -3
-3 -7 16 10 -21 -4 7 0
-6 -9 19 13 -18 -2 9 1
-9 -9 19 12 -20 -2 6 0
-10 -8 20 12 -19 1 9 2
-9 -9 21 13 -17 3 11 4
-9 -8 20 14 -16 2 11 4
-6 -6 19 13 -17 2 9 6
-5 -4 19 11 -18 0 9 3
-10 -7 22 14 -14 2 9 3
-9 -5 21 16 -13 3 9 3
-14 -9 23 16 -13 3 10 5
-16 -7 25 17 -12 4 11 5
-14 -4 25 18 -12 3 10 4
-9 -3 25 16 -13 3 10 4
-10 -3 28 18 -10 6 14 6
-15 -7 25 14 -14 3 10 5
-11 -7 20 10 -17 0 5 4
2 -8 20 12 -17 -1 6 1
9 -7 19 11 -18 -3 5 -2
4 -5 19 11 -18 -2 5 -3
-2 -7 21 13 -15 -1 7 -1
-2 -7 21 13 -15 -1 7 -1
-4 -4 23 15 -14 0 7 -2
-7 -5 24 13 -12 -3 4 -3
-9 -5 28 17 -9 -3 4 -4
-7 -3 35 26 -3 2 5 -4
-6 -2 41 34 2 5 6 -2
-6 1 46 42 12 9 8 -2
-6 9 48 51 25 18 14 3
-3 12 46 57 37 31 25 11
4 13 42 64 45 43 35 17
13 20 35 70 55 56 46 24
20 26 33 82 72 75 60 34
20 27 36 92 88 94 74 42
27 35 43 108 111 117 92 56
43 52 50 136 144 149 116 72
57 64 52 161 173 181 142 88
73 75 48 177 199 209 166 105
93 89 41 188 222 236 191 120
111 96 24 181 231 255 208 135
132 110 -9 162 227 263 222 144
150 119 -43 149 216 260 224 144
166 126 -81 123 193 240 216 139
185 129 -118 95 167 219 206 133
190 111 -137 70 135 180 176 111
175 83 -142 26 80 120 125 70
147 61 -145 -41 16 63 83 39
116 52 -154 -113 -43 20 59 28
93 53 -155 -167 -88 -12 42 25
76 46 -164 -225 -151 -59 19 12
60 33 -167 -276 -213 -107 -7 -2
39 30 -160 -296 -239 -128 -21 -7
13 28 -148 -286 -238 -132 -28 -10
-1 23 -136 -270 -229 -136 -38 -16
-7 25 -123 -250 -215 -132 -42 -21
-15 21 -112 -230 -195 -123 -42 -21
-20 9 -115 -212 -182 -117 -44 -25
-20 3 -117 -195 -168 -110 -43 -27
-29 0 -113 -177 -152 -100 -40 -25
-30 -4 -107 -164 -142 -92 -38 -28
-29 -5 -91 -143 -123 -80 -32 -26
-32 -10 -72 -119 -102 -68 -27 -23
-32 -10 -55 -97 -84 -56 -20 -18
-30 -8 -47 -85 -71 -49 -17 -18
-17 -10 -43 -76 -64 -45 -16 -20
-6 -10 -43 -69 -58 -44 -15 -22
8 -4 -35 -63 -50 -37 -13 -20
9 -4 -26 -54 -40 -31 -9 -18
1 -2 -14 -39 -28 -23 -5 -16
-5 -3 -5 -28 -20 -19 -1 -12
-5 -1 1 -23 -15 -16 0 -13
-5 -2 5 -22 -12 -15 0 -13
-4 4 9 -21 -11 -15 -2 -15
-6 -1 7 -19 -7 -15 -1 -14
-4 -1 7 -16 -5 -13 -2 -12
-2 2 8 -15 -2 -11 1 -11
0 0 7 -15 -3 -12 1 -9
2 1 7 -16 -3 -12 0 -8
0 1 8 -13 -2 -12 0 -13
-2 -1 9 -11 -1 -12 -1 -12
-1 -2 12 -9 -1 -13 -1 -14
-5 -1 14 -9 1 -11 0 -14
-7 1 17 -10 3 -9 2 -12
-5 1 17 -7 4 -7 5 -11
-6 -1 16 -2 8 -5 5 -10
-6 -2 14 -4 8 -5 6 -10
1 0 12 -8 7 -6 4 -11
2 -1 10 -10 5 -7 4 -10
-5 -1 12 -8 10 -5 6 -9
-7 -2 10 -11 8 -6 5 -9
-7 -2 9 -18 6 -7 3 -11
-4 0 8 -18 8 -5 6 -9
-7 -1 4 -18 8 -8 4 -11
-7 -5 1 -18 9 -9 4 -12
-3 -4 1 -19 11 -8 4 -10
-1 -3 -2 -25 10 -9 5 -9
2 -2 -3 -29 8 -11 5 -11
1 -4 -5 -30 7 -12 5 -9
-2 -2 -6 -29 9 -12 4 -10
-2 0 -7 -33 8 -14 5 -10
-1 -2 -8 -37 6 -18 1 -11
-2 -2 -9 -38 7 -19 1 -11
-3 1 -11 -36 9 -20 0 -14
-3 -1 -14 -38 8 -23 -3 -16
-5 0 -12 -34 10 -22 -2 -13
-11 0 -11 -29 14 -20 2 -12
-5 0 -14 -34 10 -23 -2 -16
4 -1 -14 -39 9 -25 -2 -15
5 -1 -15 -43 7 -28 -4 -17
4 -2 -17 -43 7 -30 -3 -18
3 0 -15 -37 8 -29 -3 -19
5 2 -14 -36 9 -29 -3 -21
5 6 -15 -37 11 -31 -4 -21
3 -1 -18 -37 14 -32 -4 -24
-3 -3 -17 -35 12 -32 -4 -22
-4 -2 -14 -30 15 -29 0 -18
-7 -2 -14 -30 15 -30 -3 -20
-3 1 -13 -28 16 -31 -2 -20
-7 4 -11 -26 15 -32 -2 -18
-4 5 -12 -29 12 -36 -4 -21
3 4 -11 -29 13 -37 -6 -22
7 2 -13 -31 11 -40 -6 -25
2 2 -14 -34 10 -40 -8 -25
3 2 -15 -33 12 -39 -6 -26
3 1 -17 -32 11 -40 -8 -26
3 2 -16 -31 14 -38 -6 -24
6 3 -16 -32 14 -38 -5 -24
5 1 -19 -33 13 -38 -4 -25
2 3 -17 -28 17 -37 -4 -22
0 5 -16 -29 17 -37 -4 -22
1 8 -15 -29 16 -38 -7 -23
1 9 -14 -26 19 -36 -4 -23
-1 5 -11 -25 22 -33 -3 -19
-2 1 -15 -25 22 -32 -1 -22
-1 -2 -16 -26 24 -32 -1 -22
1 2 -18 -25 25 -33 -2 -22
8 7 -18 -22 24 -34 -3 -23
9 2 -19 -20 22 -34 -2 -23
9 3 -17 -23 23 -32 -2 -22
9 5 -16 -27 24 -31 0 -22
5 3 -14 -28 25 -31 0 -20
6 6 -15 -24 27 -30 1 -21
6 4 -15 -20 30 -29 0 -20
3 5 -16 -16 33 -27 2 -19
-2 4 -12 -10 38 -22 6 -13
-4 4 -12 -8 41 -20 10 -8
-5 2 -13 -9 39 -21 8 -6
-3 6 -17 -11 40 -22 7 -13
-1 11 -18 -11 38 -23 5 -14
-4 13 -17 -11 40 -23 6 -12
-6 9 -12 -5 45 -19 8 -8
-6 6 -13 -3 45 -20 9 -10
4 8 -14 -4 45 -22 7 -11
15 7 -19 -8 42 -25 4 -15
13 5 -19 -9 43 -25 5 -14
9 5 -20 -8 44 -23 8 -12
10 4 -21 -4 45 -24 7 -14
12 1 -22 1 50 -23 8 -11
9 2 -22 1 53 -23 9 -12
6 2 -23 1 51 -22 9 -11
7 2 -20 2 53 -21 9 -10
3 1 -20 -1 54 -20 12 -9
2 2 -22 -1 58 -16 14 -7
5 3 -27 2 59 -16 15 -8
9 4 -29 6 61 -13 17 -6
12 7 -31 11 62 -10 18 -4
11 7 -29 13 65 -8 20 -3
6 8 -29 14 69 -5 23 1
1 10 -25 15 72 -3 23 3
-3 12 -26 14 70 -5 24 2
0 15 -26 18 73 -2 25 3
0 11 -23 23 77 2 28 6
3 12 -24 23 77 1 28 6
8 15 -26 23 77 1 28 4
12 15 -27 24 81 1 26 4
17 15 -28 23 79 1 27 4
23 16 -28 24 79 1 27 7
23 16 -30 29 81 2 28 7
21 16 -29 32 85 3 30 7
22 17 -28 32 83 2 30 6
18 16 -27 30 86 1 29 4
17 21 -26 26 88 3 30 6
15 17 -27 28 86 3 31 6
13 17 -30 31 85 3 31 4
12 17 -28 33 86 6 33 8
11 15 -26 33 87 7 34 10
20 18 -27 33 88 7 34 10
24 18 -32 27 83 2 31 9
23 18 -31 28 80 0 29 12
22 19 -30 28 80 0 30 8
17 16 -30 27 79 -3 28 6
13 14 -30 23 76 -3 25 5
15 18 -30 21 75 -4 24 6
15 14 -31 19 75 -5 25 4
17 13 -31 19 75 -4 24 4
18 14 -31 17 72 -8 22 1
14 13 -34 15 68 -12 19 -1
15 14 -37 13 65 -13 19 -3
12 9 -36 9 63 -13 18 -2
12 9 -36 2 59 -17 16 -3
11 12 -36 -1 57 -18 16 -4
6 9 -37 -3 58 -18 15 -3
5 7 -36 -6 54 -19 15 -4
6 5 -41 -12 49 -23 12 -8
6 3 -41 -17 49 -24 11 -7
4 2 -41 -19 43 -27 11 -8
-2 -1 -41 -21 40 -27 10 -7
-5 -1 -42 -27 36 -29 8 -9
-7 0 -40 -31 34 -33 6 -9
-8 -2 -43 -38 29 -40 0 -12
-5 -4 -42 -42 26 -44 -1 -15
-8 -7 -43 -45 23 -46 -2 -15
-12 -11 -43 -48 19 -49 -5 -18
-15 -12 -42 -50 18 -49 -5 -20
-21 -15 -40 -52 19 -49 -5 -18
-31 -16 -38 -54 18 -49 -4 -17
-36 -20 -39 -59 17 -49 -4 -17
-35 -21 -42 -62 13 -53 -7 -21
-34 -22 -43 -64 11 -55 -9 -23
-36 -24 -44 -71 7 -60 -12 -25
-29 -23 -48 -79 -1 -64 -14 -28
-23 -21 -49 -81 -2 -66 -16 -28
-23 -23 -49 -82 -4 -68 -17 -30
-28 -29 -49 -82 -5 -69 -19 -31
-27 -30 -49 -83 -7 -71 -22 -35
-29 -30 -49 -88 -10 -74 -23 -36
-38 -29 -48 -90 -8 -72 -22 -35
-48 -30 -48 -92 -8 -73 -21 -35
-50 -31 -47 -90 -11 -72 -20 -34
-49 -30 -47 -87 -11 -73 -21 -34
-47 -34 -49 -88 -14 -77 -24 -37
-46 -36 -49 -91 -17 -80 -26 -37
-43 -35 -52 -93 -19 -82 -30 -42
-39 -36 -53 -97 -21 -83 -30 -41
-41 -37 -50 -96 -21 -81 -29 -40
-41 -36 -49 -93 -20 -81 -30 -39
-40 -36 -50 -95 -20 -81 -31 -42
-45 -40 -50 -98 -21 -81 -30 -43
-49 -39 -48 -96 -21 -81 -31 -42
-49 -40 -49 -95 -22 -83 -32 -43
-52 -41 -44 -91 -19 -83 -30 -41
-59 -40 -43 -91 -19 -83 -29 -41
-60 -39 -44 -91 -19 -83 -30 -41
-49 -39 -48 -95 -23 -86 -34 -43
-43 -40 -51 -100 -25 -88 -37 -46
-43 -41 -47 -97 -23 -85 -34 -46
-44 -41 -47 -96 -23 -85 -33 -46
-49 -40 -45 -95 -21 -84 -30 -43
-54 -41 -42 -93 -20 -82 -28 -40
-58 -41 -41 -97 -23 -84 -29 -42
-56 -39 -41 -97 -24 -83 -31 -43
-54 -42 -43 -98 -25 -86 -33 -45
-46 -42 -44 -96 -25 -88 -36 -47
-44 -42 -43 -91 -24 -87 -33 -45
-46 -46 -43 -91 -24 -86 -35 -46
-44 -39 -38 -87 -22 -83 -32 -43
-43 -37 -38 -88 -23 -81 -30 -42
-45 -39 -38 -89 -23 -81 -30 -43
-48 -40 -36 -87 -21 -78 -28 -41
-49 -40 -36 -89 -24 -80 -28 -41
-50 -41 -33 -89 -23 -78 -29 -40
-52 -40 -34 -85 -23 -78 -29 -40
-53 -40 -34 -84 -22 -79 -29 -40
-53 -43 -35 -87 -19 -78 -31 -41
-50 -40 -35 -89 -20 -77 -30 -38
-51 -42 -37 -88 -21 -78 -31 -36
-49 -39 -36 -86 -20 -76 -29 -37
-51 -39 -35 -84 -19 -75 -27 -36
-49 -39 -36 -80 -20 -75 -27 -36
-43 -35 -34 -78 -20 -74 -27 -35
-41 -33 -33 -76 -18 -72 -26 -33
-44 -33 -33 -80 -18 -73 -27 -32
-51 -37 -33 -83 -16 -72 -26 -32
-50 -33 -35 -85 -16 -71 -25 -34
-51 -31 -35 -85 -18 -68 -22 -32
-50 -33 -35 -85 -17 -67 -21 -32
-50 -35 -35 -84 -15 -66 -21 -31
-52 -35 -35 -79 -13 -64 -20 -29
-51 -32 -36 -78 -15 -64 -21 -31
-42 -30 -36 -80 -18 -68 -25 -33
-41 -32 -34 -77 -15 -66 -23 -34
-41 -31 -33 -79 -15 -67 -23 -33
-37 -30 -32 -81 -14 -65 -23 -32
-35 -32 -32 -80 -15 -67 -24 -34
-33 -29 -31 -78 -13 -64 -23 -34
-36 -29 -30 -78 -11 -62 -23 -33
-40 -31 -29 -79 -11 -60 -22 -32
-41 -29 -29 -77 -10 -59 -21 -30
-42 -29 -28 -73 -9 -56 -19 -31
-40 -23 -26 -73 -8 -55 -17 -29
-39 -21 -26 -74 -9 -54 -17 -30
-38 -22 -26 -73 -10 -55 -17 -29
-33 -21 -27 -70 -7 -54 -18 -29
-31 -22 -28 -71 -8 -56 -19 -31
-26 -22 -29 -72 -9 -57 -18 -32
-22 -21 -29 -75 -14 -56 -19 -32
-26 -24 -28 -78 -13 -56 -19 -31
-30 -25 -29 -74 -13 -56 -19 -30
-30 -22 -26 -69 -9 -53 -17 -26
-29 -23 -26 -70 -11 -54 -18 -23
-33 -21 -24 -69 -10 -53 -17 -26
-39 -18 -22 -64 -8 -52 -15 -24
-37 -21 -22 -66 -8 -50 -16 -25
-32 -19 -21 -69 -6 -48 -15 -24
-33 -19 -19 -71 -6 -46 -13 -24
-36 -20 -21 -68 -5 -46 -14 -24
-37 -18 -21 -62 -3 -45 -14 -23
-36 -18 -24 -64 -5 -47 -15 -25
-23 -15 -25 -67 -7 -47 -16 -25
-20 -15 -27 -71 -11 -50 -18 -27
-24 -17 -25 -72 -12 -48 -16 -26
-25 -17 -25 -75 -13 -49 -17 -24
-24 -18 -25 -75 -10 -46 -16 -20
-25 -16 -24 -71 -8 -45 -13 -21
-29 -15 -21 -66 -3 -40 -11 -17
-31 -16 -20 -65 -5 -40 -10 -17
-31 -15 -20 -67 -4 -39 -10 -16
-28 -12 -19 -64 -2 -39 -9 -17
-27 -14 -19 -62 -4 -41 -11 -18
-27 -14 -21 -65 -7 -44 -14 -20
-27 -18 -21 -68 -7 -44 -14 -21
-28 -18 -21 -70 -8 -45 -16 -21
-21 -13 -23 -71 -10 -46 -18 -23
-17 -14 -25 -73 -12 -49 -21 -24
-16 -16 -25 -68 -10 -45 -18 -21
-17 -16 -25 -64 -5 -43 -16 -18
-17 -15 -24 -62 -5 -43 -15 -18
-12 -11 -25 -63 -7 -44 -18 -21
-15 -13 -23 -63 -8 -42 -16 -19
-21 -12 -22 -67 -10 -44 -17 -20
-22 -13 -21 -68 -7 -44 -17 -21
-23 -14 -20 -68 -8 -43 -17 -19
-21 -14 -24 -66 -7 -42 -18 -20
-23 -16 -24 -64 -6 -40 -17 -20
-23 -15 -24 -62 -6 -39 -16 -19
-23 -15 -25 -61 -2 -39 -16 -18
-21 -13 -26 -61 -2 -39 -15 -18
-20 -11 -24 -61 -4 -37 -14 -17
-18 -12 -24 -61 -5 -37 -13 -16
-19 -15 -25 -63 -10 -40 -15 -17
-23 -14 -23 -60 -6 -38 -14 -18
-26 -14 -22 -59 -5 -37 -13 -16
-25 -16 -23 -60 -6 -38 -12 -16
-26 -17 -20 -59 -5 -38 -12 -15
-22 -15 -20 -57 -6 -38 -11 -15
-22 -17 -20 -58 -4 -37 -11 -14
-22 -17 -22 -59 -7 -39 -12 -16
-17 -13 -25 -63 -11 -41 -16 -16
-16 -11 -24 -62 -10 -39 -14 -16
-18 -12 -25 -59 -8 -37 -12 -14
-21 -11 -24 -59 -8 -36 -12 -13
-22 -10 -22 -61 -9 -36 -12 -13
-24 -11 -22 -59 -7 -36 -11 -13
-23 -11 -21 -61 -7 -36 -13 -13
-20 -10 -21 -59 -8 -36 -13 -14
-20 -10 -24 -60 -8 -38 -16 -16
-16 -12 -23 -58 -6 -38 -15 -16
-15 -16 -25 -59 -9 -40 -19 -20
-10 -15 -26 -60 -11 -42 -20 -21
-8 -15 -26 -60 -10 -41 -20 -23
-9 -13 -26 -59 -9 -41 -22 -26
-14 -14 -22 -59 -7 -38 -20 -22
-19 -13 -18 -55 -4 -35 -16 -18
-19 -15 -21 -58 -5 -36 -18 -20
-13 -14 -20 -57 -4 -36 -17 -19
-18 -14 -19 -54 -1 -33 -15 -17
-17 -16 -20 -56 -6 -33 -14 -14
-16 -11 -22 -61 -10 -35 -18 -18
-17 -9 -22 -64 -9 -35 -17 -19
-18 -13 -22 -62 -6 -32 -15 -16
-20 -12 -21 -59 -5 -33 -16 -17
-25 -11 -18 -55 -4 -30 -15 -14
-23 -7 -15 -52 -2 -27 -11 -11
-19 -6 -18 -55 -5 -29 -14 -14
-21 -12 -18 -54 -4 -29 -15 -15
-18 -13 -20 -58 -5 -32 -18 -18
-12 -10 -23 -62 -8 -34 -21 -22
-5 -9 -23 -62 -9 -33 -19 -23
-8 -10 -21 -60 -9 -32 -19 -22
-10 -13 -21 -63 -9 -34 -20 -22
-13 -13 -18 -59 -7 -30 -20 -21
-14 -14 -17 -59 -7 -29 -19 -19
-13 -15 -19 -60 -8 -29 -19 -18
-11 -16 -19 -59 -8 -28 -17 -18
-11 -14 -21 -58 -8 -27 -17 -19
-11 -13 -20 -57 -6 -27 -18 -18
-13 -13 -17 -56 -5 -25 -15 -15
-14 -10 -19 -57 -6 -27 -16 -16
-15 -6 -19 -58 -8 -27 -16 -16
-12 -9 -20 -60 -9 -29 -17 -17
-11 -9 -19 -58 -9 -29 -18 -18
-13 -9 -16 -55 -7 -27 -17 -17
-13 -10 -16 -56 -5 -28 -18 -17
-9 -8 -16 -57 -5 -27 -18 -19
-12 -11 -15 -55 -7 -26 -19 -20
-12 -12 -16 -55 -5 -27 -20 -20
-9 -13 -16 -53 -5 -27 -20 -21
-7 -10 -16 -51 -5 -26 -19 -20
-10 -8 -16 -50 -5 -26 -17 -16
-12 -11 -16 -50 -6 -26 -17 -15
-15 -13 -15 -50 -6 -26 -19 -19
-16 -13 -13 -47 -4 -24 -17 -17
-16 -10 -12 -43 -1 -21 -16 -14
-17 -11 -14 -47 -4 -23 -19 -19
-16 -11 -14 -47 -6 -23 -18 -18
-15 -12 -10 -46 -4 -22 -17 -14
-16 -13 -11 -45 -3 -22 -17 -15
-12 -7 -14 -46 -5 -25 -20 -16
-10 -4 -15 -48 -7 -24 -19 -16
-10 -9 -15 -49 -6 -24 -20 -15
-9 -8 -14 -48 -8 -25 -20 -17
-9 -10 -17 -51 -11 -27 -23 -21
-5 -11 -18 -50 -10 -25 -23 -20
-1 -11 -18 -53 -11 -25 -25 -22
0 -11 -16 -51 -9 -22 -23 -20
-2 -9 -14 -43 -4 -20 -20 -16
-8 -11 -13 -39 -1 -20 -19 -18
-17 -9 -9 -35 1 -16 -16 -13
-21 -5 -5 -33 1 -14 -13 -10
-19 -8 -7 -40 -3 -17 -18 -13
-17 -7 -8 -41 -5 -18 -19 -15
-13 -5 -8 -39 -3 -18 -20 -15
-11 -7 -7 -36 -1 -15 -20 -14
-8 -9 -9 -35 -3 -16 -22 -16
-8 -13 -11 -36 -6 -17 -23 -20
-4 -9 -11 -37 -6 -17 -21 -19
-8 -10 -11 -35 -5 -15 -20 -18
-8 -8 -10 -34 -3 -14 -19 -18
-8 -7 -8 -32 -2 -12 -16 -15
-9 -12 -9 -34 -4 -15 -20 -18
-7 -9 -10 -35 -6 -16 -22 -20
-7 -8 -7 -30 -2 -14 -20 -16
-8 -8 -8 -30 -3 -14 -21 -17
-4 -9 -10 -32 -3 -16 -24 -18
-7 -13 -10 -31 -2 -16 -24 -16
-6 -12 -8 -27 -2 -13 -21 -16
-6 -5 -7 -24 -2 -12 -21 -13
-13 -10 -6 -26 -2 -12 -21 -14
-18 -13 -5 -27 -1 -11 -22 -15
-13 -8 -3 -28 2 -11 -21 -15
-10 -8 -3 -28 -2 -11 -22 -18
-3 -4 -2 -24 -1 -9 -23 -16
-1 0 -1 -21 1 -7 -22 -14
-1 -1 -1 -20 1 -8 -23 -17
-3 1 1 -18 0 -6 -21 -15
-5 -2 0 -23 0 -7 -21 -13
-3 1 -1 -22 0 -7 -19 -13
-3 7 1 -22 0 -7 -21 -13
-6 4 4 -20 0 -7 -21 -14
-4 6 7 -17 3 -5 -20 -13
-5 5 11 -15 4 -3 -19 -12
-2 4 13 -11 7 -1 -18 -11
3 6 15 -8 6 -1 -18 -11
3 3 16 -11 6 -1 -18 -13
3 2 18 -12 7 0 -17 -14
2 2 19 -10 10 3 -16 -12
1 1 16 -5 11 4 -14 -12
1 2 16 -1 13 6 -15 -11
0 2 14 -1 13 6 -15 -10
-1 1 11 -1 12 7 -17 -11
-1 2 6 -3 10 7 -17 -12
0 4 5 -3 12 8 -16 -10
-2 6 5 -4 13 7 -17 -8
-3 6 4 -2 10 6 -17 -7
1 4 2 -2 8 4 -19 -11
4 6 1 -4 7 4 -19 -12
9 6 -1 -13 3 2 -22 -14
11 6 -5 -24 -2 0 -24 -15
5 9 -7 -18 0 4 -21 -14
6 10 -12 -13 1 2 -25 -16
10 6 -11 -11 -1 1 -24 -17
9 6 -9 -12 -2 2 -24 -15
5 2 -11 -18 -6 0 -27 -18
8 6 -11 -17 -1 2 -26 -14
13 9 -13 -19 -5 3 -25 -17
14 5 -15 -16 -3 4 -24 -14
14 8 -12 -11 0 7 -22 -13
14 9 -12 -12 1 8 -22 -10
11 13 -12 -12 1 7 -23 -11
10 7 -15 -15 -5 4 -25 -14
8 4 -14 -18 -8 4 -26 -14
13 4 -15 -20 -9 2 -27 -14
19 7 -18 -22 -11 0 -29 -14
11 8 -17 -18 -7 4 -26 -14
5 8 -14 -12 1 8 -22 -11
7 5 -17 -12 -2 7 -24 -12
12 8 -19 -17 -10 3 -29 -15
10 5 -16 -16 -9 4 -31 -15
0 0 -12 -15 -5 5 -31 -14
-3 1 -10 -12 -4 6 -31 -15
-1 5 -8 -12 -6 5 -33 -18
3 1 -9 -10 -8 5 -33 -19
8 0 -11 -10 -10 4 -36 -21
6 -5 -13 -11 -10 3 -38 -25
4 -6 -10 -11 -10 3 -39 -24
-1 -5 -10 -11 -11 4 -37 -24
-1 -3 -8 -14 -12 3 -38 -24
0 -3 -8 -15 -11 3 -38 -24
2 -3 -9 -14 -12 1 -39 -25
7 -1 -9 -11 -12 0 -39 -26
8 -1 -8 -11 -14 0 -41 -28
8 -1 -8 -10 -13 3 -43 -28
4 -6 -6 -6 -13 4 -41 -25
4 -8 -8 -6 -14 3 -43 -26
5 -8 -6 -8 -15 3 -41 -27
-1 -7 -2 -4 -12 5 -39 -25
-7 -10 -2 -3 -11 5 -38 -25
-3 -8 -3 -4 -11 4 -41 -26
-4 -4 -1 -2 -9 7 -40 -25
-7 -4 -1 -3 -10 7 -39 -25
-5 -4 -1 -5 -13 6 -42 -29
-2 -5 -3 -5 -14 6 -43 -28
5 -4 -3 -5 -13 6 -44 -29
6 -4 -2 -3 -11 5 -45 -30
0 -7 0 -3 -11 5 -45 -30
1 -6 3 -3 -11 6 -43 -27
6 -3 1 -4 -14 5 -45 -31
6 -6 -2 -5 -16 3 -48 -32
4 -8 -2 -5 -15 5 -47 -31
-1 -10 1 -2 -12 8 -46 -31
3 -7 4 -2 -12 7 -46 -31
5 -7 7 0 -9 9 -45 -29
6 -7 5 -3 -12 8 -47 -33
2 -7 7 -2 -11 10 -46 -31
2 -6 10 2 -9 12 -47 -29
1 -8 9 4 -10 12 -46 -31
4 -5 7 3 -10 12 -46 -29
-2 -6 9 2 -10 11 -47 -29
2 -5 7 -1 -11 9 -49 -31
10 -2 7 0 -12 9 -48 -31
5 -1 6 0 -13 10 -49 -30
4 1 7 1 -11 15 -47 -28
6 -3 5 -1 -13 13 -51 -31
8 -2 4 4 -11 13 -50 -32
8 0 5 6 -7 14 -49 -31
-1 0 8 7 -5 17 -47 -29
-2 1 9 6 -8 18 -44 -28
0 -4 8 6 -7 18 -44 -28
3 -3 6 4 -10 15 -46 -30
5 -3 9 9 -9 14 -46 -30
5 -4 16 12 -6 13 -50 -29
3 -3 19 17 -3 11 -54 -32
1 -4 27 25 3 15 -51 -32
0 0 35 41 17 26 -44 -25
2 5 35 51 31 38 -34 -17
8 10 32 54 41 51 -24 -9
8 16 29 58 51 62 -14 -3
9 22 26 62 61 75 -1 5
16 26 22 66 72 89 10 13
24 29 23 80 86 106 23 22
35 41 30 100 110 132 44 39
47 52 33 119 137 162 69 56
59 65 33 136 162 193 94 74
78 76 30 152 187 224 120 92
94 88 21 163 209 247 141 103
112 97 13 163 220 268 161 119
131 110 -13 145 220 277 173 128
143 118 -42 121 205 271 176 132
160 128 -72 95 185 256 172 133
174 133 -103 71 163 236 161 127
171 113 -115 59 135 199 128 100
158 82 -117 13 83 135 73 53
136 58 -125 -63 12 73 26 20
118 49 -135 -129 -47 28 0 8
97 45 -144 -188 -104 -11 -18 1
78 45 -147 -246 -170 -57 -39 -6
55 40 -146 -296 -228 -100 -63 -15
27 32 -137 -305 -239 -115 -75 -20
8 31 -123 -287 -236 -118 -83 -24
-8 28 -102 -259 -224 -119 -88 -26
-24 23 -85 -235 -211 -116 -93 -31
-32 19 -77 -218 -200 -113 -95 -36
-33 15 -75 -205 -182 -106 -94 -39
-32 8 -80 -190 -166 -95 -91 -38
-27 4 -87 -178 -158 -89 -89 -40
-24 1 -90 -166 -150 -86 -88 -42
-21 -6 -86 -150 -140 -79 -86 -44
-16 -8 -74 -130 -124 -69 -81 -43
-15 -8 -60 -110 -107 -58 -75 -39
-12 -7 -51 -98 -96 -49 -71 -37
-6 -6 -43 -87 -87 -42 -68 -36
0 -3 -38 -76 -76 -35 -62 -33
-1 -5 -37 -64 -66 -27 -58 -30
-6 -3 -26 -50 -52 -18 -50 -23
-4 2 -15 -39 -40 -7 -43 -17
-9 -1 -7 -27 -31 -2 -40 -15
-12 0 -3 -17 -27 0 -40 -16
-9 -1 1 -13 -23 2 -40 -14
-7 -2 3 -8 -20 3 -40 -15
-3 1 6 -4 -17 5 -40 -15
5 3 6 -1 -17 6 -41 -17
7 5 7 3 -16 5 -39 -15
10 5 8 3 -16 2 -42 -16
9 3 12 3 -14 4 -42 -16
5 1 14 -1 -15 4 -40 -16
3 1 14 -1 -15 5 -38 -14
6 -1 14 1 -15 5 -40 -16
5 -1 14 6 -12 8 -36 -15
0 -2 15 10 -8 12 -34 -12
2 2 15 12 -8 13 -32 -11
7 8 17 16 -2 14 -32 -10
3 8 16 18 -4 14 -32 -9
5 6 14 13 -8 11 -36 -11
12 7 17 13 -8 12 -35 -11
8 4 17 14 -6 14 -35 -10
6 3 17 13 -7 15 -34 -10
8 1 16 11 -9 12 -35 -12
9 1 15 12 -9 12 -33 -11
6 2 14 13 -10 13 -32 -11
7 1 14 16 -9 13 -31 -12
4 -1 14 14 -9 12 -31 -12
2 0 11 10 -11 13 -31 -11
9 6 13 6 -10 14 -27 -8
8 5 13 8 -10 15 -25 -5
4 2 14 12 -7 16 -24 -3
3 3 12 12 -8 15 -24 -4
6 5 13 7 -8 13 -25 -4
6 5 10 3 -9 11 -27 -4
3 2 9 6 -9 11 -27 -4
5 4 7 8 -10 10 -28 -5
6 4 8 8 -8 11 -27 -5
8 5 4 8 -9 10 -27 -6
10 7 7 8 -8 13 -25 -5
9 5 8 9 -8 14 -25 -4
11 5 10 9 -8 14 -24 -2
10 6 11 9 -9 14 -23 -2
6 3 12 9 -7 15 -23 -3
7 3 14 11 -5 14 -23 -1
8 3 12 12 -5 12 -24 -3
7 4 12 13 -5 13 -24 -3
8 5 13 16 -2 15 -23 -2
7 5 12 21 -2 15 -22 -1
12 7 12 21 0 16 -21 -1
16 6 13 21 -1 15 -21 -2
12 4 15 20 -1 15 -21 -1
14 8 16 20 -1 14 -20 -1
11 9 19 22 2 15 -19 -1
7 4 18 23 5 16 -18 0
7 7 20 27 3 18 -18 0
7 7 21 27 5 19 -18 1
8 10 19 27 8 22 -17 2
2 9 18 30 9 24 -14 5
5 8 16 30 8 23 -14 5
14 8 15 28 6 22 -15 5
23 8 11 21 2 18 -19 0
29 9 7 18 -2 15 -21 -1
31 10 7 22 -1 15 -21 -1
27 11 8 28 3 17 -19 2
21 13 11 33 6 21 -15 4
15 16 15 35 9 24 -11 8
11 14 18 38 11 26 -10 8
13 11 16 38 10 24 -9 8
12 10 15 37 10 27 -7 9
14 13 18 38 14 30 -4 11
19 9 15 34 13 27 -7 9
24 9 10 33 6 24 -11 6
28 10 11 38 8 24 -12 6
23 9 15 41 11 26 -9 8
20 8 17 45 14 29 -7 9
20 10 18 47 16 32 -6 11
19 11 18 49 19 32 -4 12
22 13 17 52 21 35 -3 13
28 16 17 54 23 37 -2 14
26 14 18 56 24 35 -2 14
24 13 18 54 24 34 -1 14
25 11 18 52 23 34 -2 14
24 11 18 53 22 34 -3 13
23 13 19 60 26 38 1 17
29 16 19 61 25 39 2 16
33 17 17 60 26 38 3 14
30 16 20 65 30 42 6 17
27 16 20 67 33 47 9 20
30 17 17 69 34 47 10 20
30 20 21 74 38 50 12 23
29 22 21 78 38 53 13 26
29 22 21 80 38 51 13 26
30 22 23 80 38 50 11 25
30 20 23 81 39 51 11 25
33 23 22 85 40 53 13 26
27 26 23 89 44 55 15 27
29 23 27 95 48 58 17 29
33 24 24 94 47 59 17 29
41 24 21 96 47 60 17 28
45 23 24 99 52 63 19 31
46 25 25 97 52 64 21 31
44 24 27 99 53 65 23 31
42 24 28 105 55 67 27 33
44 24 26 109 58 68 30 34
42 26 26 112 60 72 32 35
35 26 31 117 62 77 36 38
34 27 31 121 66 79 36 39
39 30 30 122 67 81 36 42
45 32 27 122 65 78 33 40
47 33 29 128 68 78 34 41
45 32 31 135 70 79 34 42
44 30 32 134 68 79 35 42
45 34 34 132 69 80 38 43
43 34 34 129 68 81 37 43
44 31 33 127 67 84 39 43
43 30 31 131 67 83 39 43
41 33 29 133 67 81 39 42
48 38 26 131 66 82 39 42
50 37 26 134 67 84 41 44
38 30 29 135 68 83 40 46
37 29 31 137 71 86 42 47
41 31 30 135 69 83 42 45
43 30 29 134 66 79 39 41
41 30 33 136 66 79 37 41
38 29 32 133 63 79 37 40
37 30 33 135 62 78 39 40
37 27 30 131 58 74 36 38
39 27 28 123 56 72 35 38
38 26 26 116 53 69 33 37
40 25 25 113 49 66 31 36
38 28 23 111 45 63 30 34
36 24 24 108 45 63 30 35
37 23 24 106 42 62 30 35
33 22 27 105 41 61 30 36
24 17 24 101 38 58 28 33
22 15 25 100 36 57 28 34
19 13 25 96 32 53 26 32
20 12 23 89 27 50 24 31
24 13 20 81 22 48 22 29
24 14 22 77 19 44 20 28
19 10 20 73 17 41 17 25
18 9 17 69 11 38 14 22
17 7 19 69 10 36 12 21
12 6 21 67 10 36 11 20
11 5 21 62 6 34 10 18
10 1 20 59 3 30 8 17
16 3 20 57 0 27 6 16
9 0 21 55 -1 26 5 15
2 -2 20 54 -3 25 6 15
0 -3 23 55 0 24 4 15
-1 -6 20 52 -7 21 1 11
-3 -8 19 46 -12 18 0 10
-1 -8 19 38 -15 14 -3 8
1 -8 18 31 -18 13 -6 7
3 -7 17 32 -20 10 -7 5
-1 -8 17 35 -21 9 -8 6
-3 -12 17 33 -23 8 -9 5
5 -11 16 28 -26 4 -12 2
9 -10 12 22 -32 -1 -15 -2
4 -13 16 25 -30 0 -15 -1
-6 -14 20 27 -27 4 -11 3
-15 -14 23 28 -24 7 -8 4
-14 -14 19 26 -25 4 -11 1
-4 -18 17 20 -31 -2 -15 -1
5 -18 12 16 -36 -6 -18 -4
2 -18 16 18 -35 -6 -16 -2
-2 -21 16 17 -35 -8 -17 -3
-1 -17 15 16 -38 -8 -18 -5
-2 -21 14 17 -41 -5 -16 -4
-3 -24 15 18 -40 -8 -18 -5
-7 -25 17 18 -38 -7 -19 -4
-11 -25 16 15 -44 -8 -19 -5
-11 -22 18 18 -43 -7 -18 -4
-11 -22 21 18 -41 -7 -18 -3
-12 -22 19 15 -43 -7 -21 -4
-11 -24 17 12 -44 -9 -23 -5
-10 -22 18 14 -43 -8 -22 -6
-8 -23 18 17 -43 -8 -22 -6
-8 -24 18 20 -44 -9 -21 -6
-9 -25 23 23 -42 -8 -20 -5
-10 -26 21 21 -44 -9 -21 -6
-12 -29 24 20 -44 -9 -20 -5
-15 -28 25 19 -42 -9 -21 -5
-18 -29 28 20 -40 -6 -18 -4
-15 -29 25 18 -44 -7 -20 -6
-13 -29 21 16 -45 -7 -23 -9
-11 -28 22 15 -44 -6 -24 -9
-7 -27 20 13 -45 -8 -26 -10
-4 -27 18 15 -45 -8 -26 -9
-3 -26 22 20 -42 -7 -24 -8
-6 -27 21 17 -44 -8 -26 -8
-10 -26 23 18 -43 -5 -23 -6
-12 -23 25 20 -43 -3 -19 -3
-15 -24 24 17 -44 -6 -19 -4
-14 -23 23 15 -48 -7 -20 -7
-14 -26 21 17 -46 -6 -19 -7
-18 -30 23 19 -47 -6 -18 -5
-23 -28 26 23 -45 -4 -16 -2
-20 -26 26 20 -48 -5 -18 -4
-15 -28 25 17 -49 -8 -21 -6
-4 -29 20 11 -54 -12 -23 -8
-1 -28 17 10 -54 -11 -23 -8
3 -26 17 11 -53 -12 -23 -8
2 -27 16 12 -53 -13 -24 -8
-1 -26 15 12 -53 -12 -23 -8
0 -25 17 17 -50 -9 -20 -6
-2 -27 15 17 -48 -7 -19 -6
2 -24 15 18 -47 -5 -17 -5
-3 -25 15 20 -48 -4 -16 -4
-8 -26 17 21 -45 -5 -16 -3
-3 -18 13 16 -48 -8 -19 -5
-1 -21 16 16 -47 -7 -17 -4
-3 -20 18 16 -47 -6 -17 -3
-3 -18 20 19 -45 -2 -15 1
-5 -20 18 17 -47 -3 -13 1
-3 -18 15 17 -45 -4 -13 0
2 -15 14 17 -48 -7 -13 -1
0 -18 15 19 -45 -5 -12 -1
1 -18 16 19 -45 -5 -10 0
3 -19 17 16 -48 -6 -13 -1
3 -19 14 15 -49 -6 -14 -2
4 -17 13 18 -50 -8 -15 -2
3 -17 15 19 -49 -8 -14 -2
4 -9 16 18 -47 -6 -14 0
6 -11 14 10 -50 -7 -14 -1
5 -16 14 11 -50 -6 -13 -2
8 -16 12 15 -49 -4 -10 -1
9 -16 11 14 -49 -5 -10 0
9 -14 11 17 -48 -4 -9 0
6 -11 16 22 -43 0 -5 3
1 -12 16 20 -44 -1 -5 4
2 -14 18 20 -43 0 -4 6
1 -14 18 16 -43 -1 -5 4
1 -12 16 17 -42 -3 -5 3
3 -11 17 19 -44 0 -5 6
2 -13 18 20 -45 1 -4 5
7 -11 16 20 -45 -1 -6 4
13 -11 14 17 -46 -3 -8 2
15 -14 13 14 -49 -5 -10 0
15 -10 13 14 -47 -5 -10 0
11 -11 13 14 -45 -4 -9 2
3 -17 12 16 -43 -2 -7 3
3 -13 15 17 -42 0 -5 4
2 -14 17 20 -41 -1 -5 5
5 -16 14 19 -43 -3 -7 3
11 -11 11 19 -43 -4 -8 2
11 -12 10 15 -46 -6 -9 1
13 -7 11 15 -46 -4 -8 1
14 -9 13 16 -46 -1 -7 2
8 -12 13 19 -43 -2 -7 2
11 -10 13 18 -43 -3 -7 3
14 -11 10 13 -45 -4 -9 1
14 -12 10 9 -46 -5 -9 2
9 -9 13 13 -41 -1 -6 4
2 -11 12 13 -41 -1 -6 4
0 -8 12 13 -42 -3 -7 3
0 -8 9 14 -42 -4 -8 2
9 -7 8 15 -40 -4 -8 2
14 -10 9 16 -40 -2 -7 3
11 -13 9 16 -42 -5 -11 0
10 -13 9 15 -41 -6 -12 -1
13 -11 10 15 -43 -6 -13 -1
12 -10 13 17 -40 -4 -10 1
6 -11 15 20 -37 -2 -7 2
1 -14 15 17 -39 -3 -8 2
1 -11 17 14 -38 -3 -6 3
1 -10 17 14 -37 -3 -7 2
1 -14 11 11 -40 -6 -11 -2
10 -14 9 9 -43 -7 -13 -3
9 -13 10 12 -39 -5 -10 -1
5 -12 11 10 -38 -3 -9 0
7 -10 10 9 -38 -4 -10 0
8 -10 10 10 -39 -6 -11 -2
8 -12 11 13 -36 -4 -10 -1
6 -13 13 12 -36 -3 -9 0
4 -13 11 10 -36 -3 -8 1
10 -10 11 6 -36 -4 -8 0
4 -12 10 5 -35 -3 -9 1
1 -13 12 9 -37 -3 -8 2
8 -13 9 9 -35 -7 -12 -3
10 -13 10 9 -37 -8 -12 -2
9 -12 10 7 -37 -8 -11 -2
8 -12 12 8 -36 -6 -9 -1
2 -12 13 9 -34 -4 -9 0
3 -11 13 9 -35 -5 -9 0
1 -9 15 11 -33 -3 -7 0
2 -8 13 10 -35 -5 -10 -2
4 -12 10 6 -36 -6 -11 -2
4 -13 10 4 -37 -6 -11 -3
3 -12 10 6 -36 -7 -11 -3
4 -11 10 6 -35 -5 -10 -2
5 -14 11 6 -34 -5 -10 0
8 -13 9 4 -33 -8 -13 -2
6 -12 12 3 -32 -5 -12 0
4 -16 9 4 -33 -6 -13 -2
8 -12 9 7 -32 -6 -12 -3
5 -11 9 8 -31 -4 -12 -2
2 -13 9 7 -31 -6 -12 -2
5 -15 8 9 -31 -5 -11 -3
0 -13 9 9 -28 -5 -11 -3
-2 -12 10 10 -26 -2 -9 -1
-6 -12 11 10 -24 0 -7 1
-10 -14 8 7 -28 -2 -10 -2
-6 -14 10 7 -27 -2 -10 0
-7 -14 8 7 -29 -4 -11 -1
-7 -15 7 8 -28 -4 -10 -1
-3 -13 6 9 -27 -4 -11 -2
-3 -13 6 6 -28 -5 -12 -2
-2 -13 8 3 -29 -4 -10 -2
-4 -12 6 2 -27 -5 -11 -3
-5 -15 2 4 -28 -7 -15 -6
-1 -16 3 7 -28 -9 -16 -6
-3 -17 4 9 -26 -9 -16 -7
-7 -18 5 7 -25 -8 -16 -6
-6 -17 6 0 -26 -7 -13 -5
-4 -18 4 -2 -27 -5 -12 -5
-5 -15 3 2 -25 -4 -12 -5
-8 -14 4 6 -22 -2 -11 -4
-11 -14 6 9 -20 -1 -10 -3
-5 -10 7 9 -19 -1 -9 -2
-4 -11 5 5 -21 -4 -12 -4
-2 -16 2 2 -23 -5 -13 -6
-3 -14 3 4 -22 -3 -12 -5
-9 -16 3 6 -20 -3 -12 -6
-8 -17 2 4 -20 -5 -13 -7
-9 -16 0 3 -21 -7 -13 -7
-12 -16 -1 2 -22 -6 -13 -6
-8 -13 2 3 -18 -3 -9 -4
-9 -17 2 4 -18 -4 -11 -5
-11 -14 4 9 -15 -1 -10 -3
-9 -13 5 8 -11 -1 -10 -3
-5 -13 2 3 -14 -5 -12 -5
-4 -14 0 2 -18 -6 -14 -7
-12 -16 2 3 -15 -3 -12 -6
-12 -16 1 0 -15 -5 -13 -7
-9 -13 2 -1 -14 -4 -12 -5
-6 -14 -3 -2 -15 -6 -16 -8
-6 -16 -6 -2 -16 -8 -16 -10
-9 -15 -3 1 -14 -6 -12 -6
-11 -12 -1 3 -12 -3 -10 -5
-13 -12 0 1 -10 -2 -10 -6
-15 -13 1 -2 -10 -3 -10 -6
-16 -13 0 -2 -11 -5 -12 -7
-16 -14 -1 0 -10 -4 -12 -6
-13 -12 -4 -5 -13 -8 -16 -9
-15 -14 -2 -5 -12 -7 -13 -7
-18 -16 -1 -3 -10 -6 -13 -7
-12 -16 -5 -6 -12 -7 -15 -9
-10 -16 -7 -5 -13 -9 -17 -10
-8 -12 -5 -2 -11 -9 -15 -9
-7 -13 -5 -3 -11 -9 -15 -10
-10 -15 -4 -4 -10 -8 -15 -10
-11 -15 -3 -5 -10 -8 -16 -10
-13 -14 -4 -6 -10 -7 -15 -10
-15 -14 -4 -7 -8 -7 -15 -9
-13 -13 -3 -7 -7 -7 -13 -6
-14 -11 -3 -6 -8 -6 -12 -5
-16 -11 -5 -7 -8 -5 -10 -5
-15 -12 -6 -9 -10 -5 -10 -5
-14 -8 -3 -4 -5 -3 -8 -4
-16 -12 -5 -2 -8 -4 -9 -5
-13 -12 -5 -3 -10 -6 -10 -8
-10 -10 -6 -3 -12 -9 -13 -9
-12 -13 -5 -3 -12 -9 -14 -10
-11 -14 -2 -3 -10 -7 -12 -7
-9 -11 -4 -9 -11 -8 -13 -8
-11 -11 -6 -13 -13 -9 -13 -10
-14 -8 -4 -6 -11 -5 -10 -7
-14 -11 -2 0 -11 -5 -9 -6
-17 -7 2 4 -8 -3 -7 -4
-18 -5 4 7 -6 -2 -6 -3
-15 -2 3 3 -5 -4 -7 -4
-12 -2 6 -1 -6 -2 -6 -3
-15 -1 9 0 -4 0 -4 0
-14 -1 10 -2 -6 -2 -4 -1
-13 1 13 -1 -3 0 -3 0
-3 1 9 0 -6 -3 -7 -4
3 3 9 4 -3 -1 -6 -3
3 2 10 5 -2 -2 -6 -4
3 3 15 7 -4 -1 -5 -3
0 1 19 7 -2 0 -4 -3
-1 0 20 7 -3 -1 -5 -3
2 -1 19 7 -4 -1 -6 -6
2 -1 18 8 -3 -1 -6 -5
2 -1 15 7 -2 -2 -6 -6
3 2 14 10 0 0 -4 -4
3 -1 10 8 -1 0 -3 -3
4 0 3 6 -5 -2 -7 -6
7 -1 0 4 -7 -3 -6 -5
5 -1 -1 3 -8 -2 -6 -6
4 0 -2 1 -7 -4 -6 -6
7 1 0 0 -7 -3 -7 -6
0 -2 0 -1 -10 -4 -7 -5
-3 -1 -1 1 -5 -2 -5 -4
0 -1 -2 -1 -9 -3 -5 -4
4 2 -5 -5 -13 -4 -6 -4
3 1 -6 -5 -11 -5 -5 -3
3 0 -9 -5 -13 -6 -5 -4
9 4 -8 -6 -16 -7 -5 -4
11 7 -5 -3 -13 -5 -4 -2
9 3 -6 -6 -16 -6 -3 -3
8 8 -8 -10 -17 -7 -4 -3
9 11 -7 -9 -16 -5 -3 -1
7 7 -8 -6 -13 -2 -1 0
8 4 -10 -8 -14 -4 -1 0
10 4 -14 -12 -19 -8 -4 -2
8 0 -15 -12 -20 -9 -4 -4
9 -3 -14 -10 -19 -9 -4 -4
8 -3 -16 -11 -23 -12 -6 -6
9 1 -14 -9 -24 -12 -5 -5
12 -2 -12 -14 -23 -11 -3 -4
17 -1 -14 -18 -25 -13 -6 -7
16 2 -14 -19 -27 -13 -7 -7
12 -4 -14 -16 -28 -14 -7 -8
11 -5 -15 -14 -26 -16 -8 -8
5 -4 -11 -8 -23 -15 -10 -8
-1 -3 -9 -7 -23 -14 -9 -6
-4 -3 -7 -8 -22 -12 -7 -7
-11 -5 -3 -5 -20 -10 -7 -5
-12 -4 -2 -3 -22 -13 -9 -7
-6 -10 -4 -7 -25 -16 -12 -11
-4 -13 -6 -11 -29 -19 -12 -12
5 -10 -6 -18 -31 -21 -15 -13
12 -6 -8 -18 -32 -21 -15 -13
8 -9 -9 -15 -32 -22 -16 -15
6 -12 -6 -9 -27 -20 -13 -12
3 -10 -7 -9 -28 -21 -16 -13
2 -9 -7 -9 -28 -20 -17 -14
3 -11 -5 -9 -28 -19 -16 -14
0 -8 -3 -7 -27 -17 -12 -11
-4 -8 -1 -6 -25 -15 -9 -10
-3 -10 -1 -7 -25 -16 -10 -11
-2 -8 2 -5 -26 -17 -10 -11
0 -8 3 -2 -25 -17 -11 -12
7 -11 -1 -5 -29 -21 -16 -17
14 -12 -2 -9 -33 -23 -18 -18
13 -11 -3 -11 -32 -22 -19 -19
6 -13 -3 -12 -30 -21 -16 -17
4 -12 -2 -14 -30 -19 -15 -16
3 -10 1 -10 -28 -17 -13 -15
1 -13 0 -11 -29 -17 -13 -16
0 -13 0 -9 -29 -18 -14 -17
-3 -13 1 -6 -27 -16 -13 -15
-5 -16 3 -4 -25 -15 -12 -13
-4 -14 2 -7 -27 -16 -15 -15
0 -13 4 -5 -26 -15 -13 -14
3 -11 5 -5 -23 -16 -15 -15
0 -10 5 -8 -24 -16 -15 -15
0 -11 2 -11 -28 -17 -15 -16
-1 -10 6 -9 -27 -15 -12 -14
-4 -12 7 -8 -26 -14 -13 -15
-6 -13 6 -5 -23 -12 -11 -14
-9 -11 7 -2 -19 -10 -10 -12
-11 -11 8 -2 -21 -11 -10 -13
-10 -12 7 -4 -20 -9 -10 -11
-9 -11 8 -6 -20 -10 -10 -11
-11 -12 8 -6 -20 -11 -11 -13
-7 -11 7 -4 -21 -11 -10 -12
-11 -13 10 -2 -19 -7 -8 -9
-12 -9 11 -4 -19 -7 -7 -8
-8 -9 9 -4 -19 -9 -7 -9
-8 -11 6 -4 -19 -9 -7 -11
-4 -8 6 -3 -20 -9 -10 -12
-2 -10 8 -3 -21 -11 -11 -13
1 -10 8 -4 -21 -11 -12 -13
-2 -7 15 -5 -17 -9 -10 -11
-12 -11 19 -3 -15 -8 -11 -13
-17 -11 25 7 -6 -4 -9 -11
-17 -9 32 21 2 1 -8 -10
-13 -5 38 35 13 6 -5 -8
-2 0 34 37 20 13 -1 -5
8 5 28 34 27 23 7 1
9 10 29 38 39 39 20 11
14 15 26 47 56 56 34 20
22 21 18 59 67 71 44 26
22 26 22 72 86 89 59 39
23 38 33 89 115 121 84 58
33 51 38 109 143 152 111 74
50 62 40 131 173 188 138 95
68 74 37 150 200 218 161 109
87 85 24 156 218 240 180 120
104 96 11 154 233 260 198 134
119 107 -19 137 233 271 212 145
138 117 -52 116 218 264 214 145
153 124 -86 92 197 250 211 145
161 122 -116 75 183 232 202 140
160 106 -131 58 152 194 169 113
142 74 -132 7 95 133 117 68
121 51 -141 -70 25 71 72 36
100 46 -149 -136 -33 26 48 25
83 42 -156 -194 -93 -18 26 15
67 37 -163 -253 -163 -67 0 4
45 29 -160 -295 -222 -112 -24 -8
18 23 -149 -306 -238 -130 -36 -12
0 18 -136 -296 -237 -137 -46 -18
-14 13 -119 -278 -227 -138 -56 -25
-27 11 -103 -253 -210 -136 -60 -27
-33 9 -93 -230 -192 -128 -59 -29
-35 2 -95 -215 -180 -121 -60 -31
-32 2 -96 -200 -163 -108 -55 -30
-33 0 -97 -189 -149 -100 -50 -29
-36 -3 -97 -179 -141 -96 -49 -31
-33 -8 -87 -157 -125 -86 -47 -29
-32 -12 -73 -133 -108 -75 -43 -28
-34 -16 -59 -116 -91 -65 -38 -27
-34 -15 -49 -100 -78 -56 -33 -24
-31 -13 -44 -90 -70 -51 -33 -25
-21 -14 -40 -81 -61 -43 -29 -22
-11 -12 -36 -72 -49 -35 -25 -19
-11 -7 -22 -58 -34 -27 -19 -16
-7 -5 -13 -49 -26 -22 -16 -14
-4 -6 -5 -43 -22 -20 -16 -15
-4 -2 1 -37 -18 -17 -13 -15
-6 0 9 -29 -11 -11 -9 -11
-7 -3 8 -30 -10 -12 -11 -13
-7 -5 10 -24 -6 -10 -10 -11
-10 -4 10 -17 -1 -9 -9 -11
-13 -3 9 -15 1 -8 -8 -10
-13 -3 11 -18 3 -6 -7 -7
-16 -3 15 -17 5 -3 -4 -6
-17 -5 15 -17 3 -4 -6 -9
-13 -5 16 -16 3 -3 -6 -8
-19 -5 20 -10 8 1 -5 -7
-17 -4 24 -6 10 1 -3 -7
-13 -7 21 -4 10 0 -5 -7
-12 -8 20 -3 11 0 -5 -8
-11 -3 20 -3 12 0 -6 -8
-9 0 20 -2 13 2 -2 -7
-7 -3 19 -4 15 4 -3 -5
-6 -2 22 -7 14 3 -4 -6
-5 -3 21 -12 10 1 -6 -9
-8 -4 22 -9 12 3 -2 -6
-10 -5 23 -6 14 4 -3 -6
-14 -5 25 -2 16 6 -1 -5
-12 -2 23 0 16 7 0 -6
-8 0 22 0 18 7 1 -4
-11 -1 21 -1 19 8 1 -5
-9 0 20 -2 20 8 1 -3
-10 -3 18 -4 18 8 2 -4
-13 -1 21 -2 21 10 3 -1
-19 -2 23 -1 23 9 4 -2
-13 -3 21 -3 21 6 2 -4
-9 -3 20 -4 20 4 1 -5
-16 -4 23 -1 22 5 1 -3
-15 -6 19 -6 18 3 -2 -6
-9 -4 17 -6 20 3 -3 -6
-4 0 16 -3 19 1 -3 -7
-5 -1 14 2 21 2 -2 -5
-8 0 14 -1 24 3 0 -5
-8 1 16 -5 25 3 0 -3
-7 -1 16 -11 22 1 -1 -5
-9 -4 16 -10 23 1 -1 -5
-13 -2 19 -5 23 4 1 -3
-14 0 19 1 25 5 1 -4
-8 -3 15 -2 21 2 -3 -9
-4 -3 15 0 25 3 -2 -8
-2 1 16 1 25 3 -2 -7
0 2 16 0 24 3 -1 -5
0 4 14 -3 24 3 -2 -6
-3 6 17 -1 25 2 -2 -6
-5 3 19 0 26 1 -3 -7
-4 3 23 5 27 1 -3 -5
-8 1 24 7 29 1 -6 -8
-11 -2 27 10 28 2 -6 -7
-7 -3 24 5 26 1 -6 -10
-5 -2 23 2 28 3 -5 -9
-8 0 24 7 31 6 -3 -7
-8 0 21 10 33 6 -2 -6
-6 1 20 12 35 8 1 -5
-2 4 21 13 35 8 0 -5
-6 3 21 12 33 8 -1 -6
-5 4 22 13 33 8 -2 -5
-5 5 25 14 33 9 -1 -7
-2 6 24 14 33 7 -2 -7
-3 2 24 13 34 7 -2 -7
-4 2 24 14 37 10 0 -6
-2 5 24 17 38 12 2 -4
3 5 22 15 38 12 1 -4
6 5 22 12 39 12 1 -5
1 6 23 18 42 14 2 -4
-9 5 29 25 48 18 5 0
-7 6 31 28 49 19 5 1
-6 6 34 31 50 21 6 0
-9 7 34 33 52 22 7 3
-12 4 32 31 51 21 7 1
-9 5 31 31 53 23 7 1
-8 9 32 34 57 25 10 2
-7 13 29 39 57 26 10 3
-3 11 28 38 59 26 10 2
3 12 28 37 58 26 9 2
6 13 29 37 57 25 9 2
7 13 30 41 61 27 10 3
5 20 34 46 64 29 12 5
1 15 36 48 66 29 11 5
0 11 35 48 67 31 13 7
7 13 33 50 69 34 13 7
10 16 34 56 75 37 14 9
12 18 32 59 76 38 16 9
13 20 33 62 78 39 18 9
11 20 35 63 81 42 21 12
8 18 38 62 82 44 23 14
6 17 38 63 82 43 24 14
12 22 39 68 83 43 23 13
18 26 41 75 88 46 24 14
17 21 39 77 89 47 25 14
18 23 37 80 94 49 23 14
19 24 40 83 97 52 25 16
19 26 38 81 95 51 24 16
21 29 38 81 97 54 27 18
19 30 41 88 104 59 32 21
20 30 40 90 105 59 34 20
21 31 41 94 106 61 35 23
16 31 43 96 107 62 34 21
15 32 46 102 113 67 38 25
19 30 44 102 113 66 38 25
21 31 43 104 116 70 41 28
26 36 44 107 118 72 43 30
30 37 40 108 119 71 43 29
31 39 38 107 119 71 43 27
32 44 40 111 120 72 44 28
30 39 39 108 116 67 41 24
37 38 39 109 117 68 40 25
36 39 43 110 119 70 43 27
33 37 44 109 118 70 43 25
37 39 42 108 115 68 42 24
41 38 41 111 119 70 42 25
41 39 43 113 120 73 47 27
40 40 42 111 121 72 47 27
40 38 40 109 119 71 46 26
40 41 43 111 120 73 46 28
38 42 44 112 120 72 47 27
34 40 42 112 118 70 45 28
32 41 43 111 115 70 44 27
31 44 44 109 115 69 42 25
32 37 43 104 112 66 42 23
37 38 40 102 113 64 40 24
35 38 39 103 112 63 39 23
38 38 36 100 110 63 40 22
41 37 33 92 104 59 36 21
36 36 36 90 104 58 36 22
33 41 38 89 100 57 37 21
29 39 35 82 94 50 33 17
28 34 36 80 92 48 31 16
24 32 37 75 90 46 28 15
23 29 33 70 84 42 25 12
23 26 32 69 86 41 24 12
20 26 31 67 85 41 24 10
21 25 29 61 80 38 23 9
22 25 27 52 74 36 20 8
16 24 28 48 70 32 18 6
13 22 28 48 67 30 16 5
11 21 30 45 64 27 14 4
11 19 30 43 62 23 13 1
2 18 34 42 63 22 12 2
-2 11 34 36 60 20 10 1
3 12 29 28 54 19 8 -1
7 11 26 22 51 16 6 -4
7 9 22 15 46 11 2 -7
3 9 20 15 47 12 2 -4
0 11 23 17 47 11 3 -4
1 9 23 13 45 7 -1 -8
4 9 24 9 41 3 -4 -11
-2 4 26 9 39 2 -5 -12
-14 2 28 10 39 2 -4 -12
-12 3 28 6 36 1 -6 -13
-6 3 27 1 36 1 -7 -12
-1 -1 20 -8 29 -4 -11 -19
0 -3 18 -9 27 -4 -13 -18
1 -3 15 -10 26 -5 -14 -18
-4 -1 19 -8 27 -5 -12 -18
-12 -4 22 -7 28 -5 -11 -17
-6 -4 20 -11 23 -9 -15 -19
-7 -1 23 -10 24 -7 -15 -18
-14 -1 25 -12 22 -9 -16 -21
-10 -6 22 -17 19 -10 -19 -23
-11 -8 22 -16 21 -10 -19 -22
-13 -9 19 -15 22 -12 -21 -25
-11 -6 19 -14 22 -11 -18 -23
-13 -9 18 -18 18 -11 -20 -22
-15 -7 20 -19 17 -13 -20 -22
-17 -7 23 -18 19 -11 -19 -21
-16 -11 23 -19 18 -14 -19 -22
-13 -13 22 -19 14 -15 -21 -25
-12 -11 23 -20 13 -17 -23 -26
-14 -14 21 -21 13 -17 -24 -26
-13 -11 23 -19 16 -16 -21 -25
-18 -11 24 -16 19 -13 -21 -23
-21 -11 22 -20 14 -14 -22 -24
-20 -11 21 -25 12 -14 -23 -24
-23 -9 23 -24 12 -15 -22 -24
-26 -10 23 -22 13 -16 -22 -24
-25 -13 24 -20 14 -15 -21 -23
-24 -14 24 -20 15 -16 -23 -25
-18 -12 25 -18 12 -20 -26 -28
-22 -16 22 -19 11 -20 -27 -27
-25 -13 24 -17 12 -18 -26 -27
-24 -12 26 -14 14 -16 -24 -26
-27 -12 25 -15 13 -15 -24 -26
-29 -12 26 -19 13 -15 -24 -24
-29 -9 28 -18 14 -15 -22 -23
-30 -10 28 -20 11 -15 -22 -22
-23 -10 27 -22 11 -16 -22 -24
-16 -10 25 -21 10 -18 -26 -26
-21 -12 27 -18 9 -20 -26 -28
-24 -14 25 -20 9 -20 -26 -28
-19 -10 24 -18 10 -17 -26 -28
-18 -6 29 -14 15 -13 -22 -23
-20 -10 27 -19 13 -14 -22 -24
-19 -13 24 -24 10 -16 -25 -25
-19 -8 27 -17 12 -14 -22 -22
-17 -9 27 -17 11 -15 -23 -22
-15 -10 28 -19 11 -16 -22 -23
-18 -9 32 -15 15 -14 -20 -20
-25 -11 33 -15 14 -14 -22 -20
-20 -12 30 -16 12 -15 -23 -22
-18 -11 28 -17 12 -14 -24 -22
-23 -17 25 -18 11 -15 -26 -24
-17 -13 23 -19 11 -15 -26 -24
-21 -15 25 -17 14 -14 -23 -21
-21 -9 28 -14 17 -11 -20 -19
-19 -9 29 -13 16 -10 -20 -18
-19 -12 28 -14 14 -12 -21 -21
-21 -11 32 -12 17 -9 -19 -19
-25 -11 33 -12 18 -9 -20 -18
-25 -16 32 -15 17 -10 -20 -18
-21 -14 29 -16 18 -10 -19 -19
-22 -12 25 -12 18 -10 -21 -19
-19 -11 21 -11 16 -12 -23 -20
-18 -13 22 -14 18 -11 -22 -20
-20 -9 24 -12 19 -11 -20 -18
-16 -6 26 -11 17 -11 -21 -18
-18 -7 28 -9 18 -9 -19 -18
-22 -10 30 -12 23 -7 -18 -16
-22 -8 29 -15 20 -10 -19 -18
-16 -9 26 -15 16 -10 -19 -18
-15 -10 25 -13 17 -10 -19 -18
-15 -11 24 -12 21 -9 -18 -16
-13 -11 22 -10 18 -10 -18 -17
-15 -14 21 -13 17 -10 -19 -17
-19 -9 24 -12 18 -8 -17 -14
-20 -7 26 -11 19 -7 -15 -14
-22 -8 27 -11 19 -8 -16 -15
-23 -8 29 -7 21 -6 -15 -13
-23 -7 30 -6 24 -7 -15 -13
-22 -12 27 -10 21 -9 -16 -15
-18 -13 25 -12 18 -10 -18 -18
-16 -11 25 -10 19 -10 -18 -15
-16 -13 21 -13 17 -12 -20 -18
-13 -13 22 -17 15 -11 -19 -18
-15 -9 25 -14 17 -9 -16 -15
-17 -12 22 -15 15 -12 -18 -18
-16 -12 22 -14 16 -12 -16 -19
-16 -12 26 -12 19 -9 -15 -15
-17 -11 26 -12 20 -11 -16 -17
-15 -14 23 -14 15 -13 -18 -18
-16 -13 23 -13 18 -11 -15 -16
-19 -11 24 -10 19 -8 -14 -14
-21 -13 21 -11 19 -10 -15 -16
-20 -15 19 -17 16 -10 -15 -16
-18 -11 21 -20 16 -10 -13 -15
-19 -13 20 -20 15 -10 -13 -14
-24 -13 20 -15 16 -9 -11 -14
-26 -10 21 -10 17 -7 -11 -11
-27 -10 23 -5 20 -7 -9 -10
-25 -12 22 -8 19 -6 -10 -11
-21 -10 22 -9 20 -7 -10 -10
-13 -8 18 -12 17 -10 -14 -12
-8 -8 14 -14 15 -12 -16 -15
-11 -10 14 -17 15 -11 -15 -13
-15 -8 17 -14 16 -10 -14 -12
-9 -6 16 -16 13 -12 -17 -14
-6 -7 14 -17 12 -14 -17 -14
-11 -11 16 -13 13 -14 -17 -13
-11 -10 18 -11 14 -14 -17 -14
-13 -13 17 -13 11 -14 -18 -14
-9 -8 15 -16 12 -15 -17 -14
-10 -6 15 -17 13 -14 -18 -13
-17 -7 14 -18 13 -12 -16 -12
-23 -5 16 -18 15 -9 -13 -8
-23 -3 20 -12 17 -7 -9 -6
-17 -5 17 -12 13 -10 -12 -9
-6 -7 12 -16 10 -15 -17 -13
-6 -7 12 -16 9 -15 -16 -14
-8 -3 13 -19 8 -16 -18 -16
-7 -10 11 -22 8 -17 -18 -17
-8 -12 11 -19 11 -15 -17 -15
-9 -10 10 -17 10 -14 -18 -15
-9 -10 10 -16 10 -16 -19 -16
-8 -8 10 -17 9 -17 -20 -16
-8 -4 15 -13 14 -12 -15 -12
-8 -4 15 -14 12 -13 -15 -12
-10 -8 14 -17 10 -16 -16 -15
-16 -12 15 -17 10 -15 -17 -14
-14 -10 16 -18 9 -16 -17 -13
-10 -12 13 -22 5 -16 -17 -15
-12 -13 12 -21 8 -14 -16 -15
-15 -11 9 -19 9 -14 -16 -15
-12 -12 6 -21 8 -15 -16 -15
-12 -12 4 -22 8 -15 -16 -15
-12 -7 8 -15 11 -13 -12 -12
-9 -6 8 -16 8 -13 -13 -12
-9 -9 10 -17 7 -14 -13 -13
-12 -10 11 -17 8 -13 -16 -13
-14 -10 15 -15 10 -13 -15 -12
-10 -10 10 -16 7 -15 -15 -14
-11 -10 10 -16 9 -14 -15 -13
-12 -10 8 -19 8 -16 -17 -13
-8 -7 5 -22 4 -19 -20 -16
-3 -6 3 -22 4 -18 -21 -16
-4 -4 5 -20 4 -19 -20 -15
-4 -8 7 -18 6 -19 -17 -14
-2 -8 7 -21 2 -20 -20 -15
-6 -9 10 -21 4 -17 -17 -12
-10 -8 14 -18 6 -15 -14 -10
-8 -10 7 -23 0 -19 -17 -15
-5 -7 6 -22 2 -17 -17 -13
-11 -11 5 -19 5 -15 -15 -13
-11 -10 4 -20 4 -15 -15 -14
-7 -11 3 -23 2 -15 -16 -15
-6 -9 5 -21 4 -14 -16 -13
-5 -10 3 -18 3 -15 -17 -16
-5 -10 3 -17 3 -17 -19 -16
-7 -8 4 -19 3 -17 -19 -15
-11 -5 8 -19 3 -16 -17 -13
-11 -11 6 -21 1 -15 -17 -15
-10 -10 5 -19 2 -14 -17 -14
-10 -10 4 -16 6 -12 -17 -12
-15 -12 3 -19 5 -13 -16 -14
-14 -10 3 -22 2 -13 -16 -13
-15 -9 6 -18 5 -12 -14 -11
-14 -11 6 -18 5 -11 -14 -11
-13 -11 6 -20 3 -14 -15 -12
-14 -10 5 -19 1 -13 -16 -13
-15 -10 8 -15 5 -12 -14 -12
-13 -11 6 -17 3 -13 -14 -12
-15 -11 6 -16 3 -11 -13 -12
-10 -10 5 -16 4 -11 -13 -12
-4 -8 3 -18 2 -14 -15 -12
0 -8 0 -21 -1 -17 -19 -15
-6 -7 2 -17 3 -14 -17 -14
-14 -8 7 -12 5 -10 -13 -10
-14 -9 6 -17 1 -12 -14 -12
-16 -11 6 -17 1 -12 -16 -12
-20 -13 10 -14 4 -10 -12 -9
-19 -12 8 -15 4 -10 -11 -8
-16 -7 7 -15 3 -9 -12 -9
-16 -8 4 -13 1 -9 -13 -10
-9 -10 3 -16 -1 -10 -14 -10
-8 -12 2 -19 0 -13 -14 -11
-5 -8 1 -17 1 -13 -15 -12
-5 -8 1 -16 1 -13 -15 -11
-8 -9 1 -17 1 -15 -16 -12
-5 -8 -1 -18 -3 -16 -17 -14
-9 -9 3 -14 -2 -15 -16 -11
-13 -12 1 -16 -2 -15 -16 -11
-10 -12 2 -16 -2 -14 -16 -11
-6 -11 1 -16 -2 -14 -16 -10
0 -8 2 -17 -2 -13 -14 -10
0 -10 -1 -19 -1 -14 -16 -11
-6 -9 1 -14 0 -13 -15 -10
-9 -11 3 -9 4 -11 -14 -8
-8 -10 4 -11 1 -13 -14 -9
-9 -10 5 -14 1 -12 -13 -8
-14 -12 9 -14 -1 -10 -11 -7
-12 -12 5 -20 -3 -12 -14 -9
-11 -14 3 -19 -1 -13 -14 -9
-13 -13 3 -13 -1 -9 -12 -8
-9 -9 2 -14 -3 -11 -13 -10
-8 -7 1 -16 -2 -12 -14 -9
-15 -10 5 -12 0 -10 -11 -6
-12 -12 4 -13 -2 -10 -12 -8
-7 -10 6 -13 -2 -12 -14 -8
-4 -11 7 -13 1 -12 -13 -8
-4 -12 7 -13 0 -14 -13 -10
-7 -16 5 -15 -3 -13 -14 -10
-9 -15 5 -17 -6 -11 -14 -8
-8 -14 3 -18 -5 -9 -14 -8
-9 -14 0 -20 -4 -9 -14 -8
-7 -12 0 -19 -4 -8 -12 -7
-4 -6 3 -14 -2 -8 -11 -6
-4 -7 2 -14 -4 -9 -12 -6
-4 -5 2 -15 -6 -11 -13 -7
-7 -10 5 -12 -4 -8 -11 -6
-8 -10 8 -10 -3 -7 -10 -6
-5 -10 7 -12 -4 -8 -10 -6
-3 -8 9 -12 -4 -7 -10 -5
-2 -7 8 -11 -3 -6 -10 -3
-6 -7 9 -10 -1 -4 -8 -1
-7 -7 7 -11 -2 -5 -7 -2
-7 -2 10 -8 1 -3 -5 0
-6 -1 11 -6 2 0 -3 1
-6 0 14 -5 2 1 -5 0
-6 1 19 -3 4 3 -3 2
-7 3 22 1 6 5 -1 3
-7 0 19 -1 4 3 -2 2
-7 0 21 3 7 4 -2 3
-9 -3 20 3 6 4 -2 3
-6 -1 20 4 6 3 -1 2
-7 -2 18 1 6 3 -1 2
-12 0 22 6 9 6 1 6
-8 0 21 6 8 9 3 6
2 -1 14 4 4 5 -1 2
11 1 10 5 3 4 -2 3
4 -1 11 8 6 6 -1 5
1 -6 4 2 2 4 0 4
-2 -6 3 0 0 4 0 6
-5 -4 2 -1 1 6 2 7
-7 -6 0 -5 -2 5 2 4
-5 -5 -4 -8 -5 3 1 4
0 1 -5 -5 -5 1 -3 3
4 -1 -7 -5 -6 1 -3 2
2 1 -8 -7 -9 -1 -6 2
-1 -3 -7 -8 -10 -1 -6 3
-2 -2 -3 -6 -8 1 -4 5
-2 -6 -7 -8 -9 1 -2 6
-2 -2 -7 -6 -4 2 0 8
-2 -4 -7 -5 -1 5 2 8
-1 -4 -10 -8 -6 4 2 9
1 -2 -12 -12 -10 5 2 12
-1 2 -8 -5 -7 6 3 10
0 2 -8 -4 -7 6 4 10
-4 -1 -7 -4 -9 5 2 10
-8 -7 -8 -5 -12 2 1 8
-4 -10 -8 -7 -15 -3 -3 5
3 -12 -14 -16 -21 -7 -9 0
4 -12 -13 -15 -20 -4 -9 2
6 -8 -13 -15 -18 -2 -5 5
6 -8 -13 -15 -18 -1 -3 5
3 -7 -13 -16 -19 0 -2 8
-16 -6 -3 -8 -12 7 4 15
-27 -10 -3 -7 -12 5 3 13
-19 -12 -5 -11 -17 1 -3 9
-9 -11 -4 -11 -17 1 -2 9
-6 -12 -5 -13 -20 -1 -5 5
-2 -16 -13 -19 -24 -6 -10 0
-2 -17 -10 -16 -24 -3 -9 3
-4 -18 -10 -16 -24 -4 -9 2
-9 -19 -10 -18 -24 -5 -9 0
-13 -17 -8 -18 -25 -5 -9 2
-15 -14 -4 -13 -22 -3 -6 4
-16 -14 -2 -9 -20 -2 -5 4
-17 -18 -3 -9 -22 -3 -7 4
-16 -19 -1 -6 -21 -2 -8 4
-17 -21 1 -5 -21 -3 -6 3
-17 -25 -2 -10 -26 -6 -9 1
-12 -23 -2 -11 -26 -4 -8 3
-9 -23 -3 -13 -27 -6 -9 1
-7 -20 -7 -18 -30 -9 -12 -1
-8 -20 -5 -18 -29 -7 -9 2
-10 -18 -3 -13 -26 -4 -8 4
-12 -15 -6 -11 -26 -5 -8 3
-17 -19 -3 -8 -25 -3 -8 4
-19 -20 0 -5 -22 -1 -7 6
-18 -19 0 -4 -20 0 -5 7
-22 -24 -3 -5 -23 -1 -5 5
-23 -25 -3 -7 -23 0 -6 5
-21 -22 -1 -4 -21 1 -5 7
-26 -24 -4 -6 -23 -1 -6 5
-25 -23 -5 -7 -25 -2 -6 5
-27 -21 1 -3 -22 1 -4 9
-29 -24 0 -4 -26 -2 -6 5
-24 -24 -1 0 -26 -3 -6 4
-20 -22 0 4 -26 -3 -7 5
-22 -23 1 2 -26 -2 -6 5
-21 -26 -2 -8 -28 -3 -7 3
-18 -25 -4 -13 -30 -3 -7 4
-16 -23 -4 -9 -30 -1 -4 5
-18 -24 -7 -3 -28 0 -3 5
-18 -25 -7 -2 -28 0 -4 6
-20 -22 -4 1 -25 4 -1 9
-24 -23 -4 4 -25 2 -3 8
-26 -24 -1 6 -24 4 0 10
-28 -22 3 9 -21 6 1 12
-22 -20 1 8 -22 4 1 11
-12 -21 -4 2 -29 0 -3 6
-15 -19 -4 2 -27 3 -1 8
-20 -21 -3 2 -28 3 -1 8
-16 -22 -5 -1 -30 1 -3 8
-12 -23 -8 -4 -33 -1 -5 7
-15 -19 -2 2 -28 4 -1 10
-18 -21 -1 5 -26 5 1 9
-24 -24 1 5 -26 5 -1 10
-27 -22 9 10 -20 9 2 14
-29 -22 12 12 -21 4 -1 9
-26 -27 11 15 -20 5 -5 5
-17 -23 18 24 -13 9 -3 6
-14 -19 23 34 -3 14 -2 7
-19 -16 24 41 7 22 7 12
-18 -8 19 44 21 35 15 20
-18 -1 20 53 35 49 27 29
-8 5 17 63 44 66 38 38
1 8 13 72 56 80 51 44
4 9 17 88 75 97 63 55
14 26 28 106 100 125 84 69
33 36 31 124 127 153 106 83
38 45 35 149 160 187 133 101
48 57 32 170 190 220 161 119
70 67 18 175 205 243 182 132
101 82 -2 170 214 262 199 142
123 94 -31 153 213 272 212 154
138 100 -65 134 202 268 214 154
153 107 -101 111 183 253 211 156
161 112 -134 92 161 237 204 152
158 98 -152 71 129 201 179 130
141 66 -158 27 75 143 130 92
117 42 -161 -40 12 85 83 59
98 36 -173 -114 -51 36 53 42
85 31 -181 -175 -106 -6 30 31
75 22 -190 -233 -170 -53 6 19
58 17 -188 -278 -230 -100 -20 7
35 12 -182 -300 -259 -125 -35 2
11 7 -169 -288 -254 -130 -42 0
-11 2 -153 -266 -248 -132 -51 -5
-27 4 -136 -246 -234 -128 -54 -9
-35 0 -126 -229 -216 -117 -53 -10
-39 -5 -126 -210 -197 -107 -51 -10
-39 -9 -132 -193 -185 -100 -50 -14
-37 -14 -134 -182 -174 -95 -51 -16
-30 -20 -132 -168 -162 -91 -50 -18
-26 -17 -116 -141 -144 -80 -47 -17
-27 -22 -95 -117 -127 -68 -42 -14
-29 -27 -77 -93 -107 -56 -37 -12
-31 -28 -65 -75 -91 -46 -32 -9
-28 -28 -59 -65 -84 -40 -30 -11
-22 -26 -59 -62 -78 -35 -27 -11
-20 -19 -48 -50 -63 -22 -18 -3
-20 -19 -35 -37 -50 -14 -14 2
-21 -21 -30 -26 -43 -10 -12 1
-15 -18 -23 -19 -38 -7 -10 3
-16 -13 -15 -12 -33 -5 -10 3
-14 -14 -10 -8 -32 -3 -11 2
-14 -15 -8 -7 -29 -1 -11 2
-9 -16 -6 -5 -27 -1 -12 2
-9 -16 -6 -1 -25 0 -12 2
-17 -20 -8 -1 -23 2 -11 2
-20 -16 -7 1 -20 5 -7 5
-21 -16 -5 4 -17 7 -4 8
-23 -19 -7 1 -20 4 -5 4
-20 -18 -4 0 -19 5 -4 5
-22 -15 2 6 -18 7 -3 7
-20 -16 1 8 -16 6 -4 6
-13 -17 1 9 -15 7 -5 6
-12 -16 1 12 -15 10 -3 7
-10 -15 2 14 -11 12 -2 8
-3 -17 -3 9 -15 9 -3 5
-6 -17 -3 10 -14 12 0 7
-10 -15 0 12 -11 14 2 10
-13 -16 0 11 -13 13 2 9
-11 -17 -3 8 -15 12 1 8
-12 -15 2 13 -12 13 1 8
-14 -13 4 13 -12 11 -1 7
-12 -12 6 12 -10 12 0 8
-16 -15 6 11 -7 13 1 11
-19 -17 7 13 -5 14 3 12
-13 -18 0 8 -8 13 3 11
-12 -16 -2 11 -7 15 6 15
-9 -13 -5 11 -5 15 7 15
-12 -17 -5 10 -8 12 7 11
-11 -16 -8 7 -12 8 3 9
-11 -13 -3 10 -10 9 3 9
-12 -18 -2 10 -10 8 1 8
-15 -20 -2 9 -9 7 0 8
-14 -16 -2 9 -6 9 0 10
-14 -15 0 14 -1 10 2 10
-14 -18 -5 10 -3 9 2 9
-13 -15 -4 8 -2 11 5 12
-15 -12 -7 6 -3 9 1 10
-17 -13 -8 7 -3 8 2 9
-12 -14 -10 5 -6 6 1 8
-16 -14 -4 9 0 7 0 10
-22 -17 -1 9 -2 7 -1 10
-21 -16 -4 12 -2 6 -2 11
-14 -13 -5 16 -2 7 -2 11
-14 -13 -3 17 1 7 -1 11
-14 -16 -8 13 -3 6 -2 6
-5 -12 -10 14 -2 5 -3 6
0 -11 -9 16 -3 2 -5 3
-4 -11 -10 12 -7 0 -5 3
1 -7 -9 10 -6 -1 -4 3
1 -5 -3 15 -3 2 -4 6
-4 -9 -2 18 -1 1 -3 5
-5 -9 1 22 0 4 -2 8
-7 -9 2 25 3 5 0 13
-10 -11 2 27 3 3 -3 12
-5 -10 -3 23 2 2 -4 4
-2 -8 -2 22 3 5 -4 6
0 -6 -2 20 3 3 -4 5
1 -7 -4 16 -1 2 -4 3
3 -5 -6 15 0 2 -3 5
4 0 0 24 5 6 -2 7
-1 -4 3 29 6 8 1 7
-3 -5 5 32 9 11 3 9
-4 -4 7 34 12 12 3 9
-5 -3 8 36 14 13 5 9
-1 -4 3 34 14 13 7 9
-2 -3 3 34 15 16 8 11
-1 -2 2 34 14 15 6 9
4 -1 1 33 11 14 7 11
4 -1 2 32 14 15 8 13
8 7 9 40 20 20 10 15
2 4 10 46 19 20 11 15
-5 0 12 51 23 24 14 19
-1 5 12 54 25 24 15 19
2 7 11 56 25 23 12 17
8 4 7 51 22 22 11 13
16 5 7 53 25 24 13 15
17 10 6 52 27 23 12 16
14 8 4 51 22 22 12 14
13 7 6 53 25 25 14 17
14 11 12 60 32 30 17 20
11 11 16 66 35 31 20 21
5 8 19 71 41 35 23 24
5 11 22 78 47 39 26 26
1 13 25 84 49 42 28 28
7 7 18 80 46 41 25 24
14 11 13 81 45 38 22 21
17 13 13 82 46 37 21 21
24 14 12 84 45 36 23 22
30 15 13 84 47 38 25 23
26 17 17 89 54 38 24 23
30 21 21 94 55 41 25 26
30 20 21 97 56 45 28 27
30 22 22 99 60 46 29 28
31 23 24 104 64 49 32 29
31 19 19 104 65 52 35 30
30 21 17 110 71 55 38 33
29 24 19 115 72 58 40 34
27 23 17 110 68 58 40 33
27 23 18 108 71 60 43 35
27 28 23 116 78 65 44 36
28 28 23 120 78 65 44 35
32 27 22 122 80 66 43 34
34 30 25 127 85 69 44 35
35 33 26 133 89 72 46 36
44 33 22 132 89 73 48 36
44 34 21 132 90 73 50 39
39 36 24 132 89 74 50 40
39 34 21 128 88 72 48 38
43 33 20 126 86 71 48 37
46 41 24 130 87 72 46 37
40 35 28 130 89 72 48 37
38 31 26 130 90 74 47 38
40 35 28 137 93 76 49 39
42 38 28 138 94 77 50 38
44 36 25 131 91 75 51 38
46 38 21 126 89 75 49 38
41 37 22 129 90 76 50 38
41 38 22 126 89 76 50 37
40 38 22 123 89 77 51 38
40 39 25 125 88 77 50 38
41 39 25 126 86 74 48 36
38 35 24 127 86 74 47 36
38 34 25 127 86 71 45 34
44 34 22 125 83 66 40 30
49 32 17 115 76 63 38 28
47 33 19 113 77 65 39 33
36 31 21 110 74 63 41 30
36 30 17 105 69 61 39 28
39 30 16 101 70 61 40 28
36 30 20 103 67 58 37 27
38 29 19 99 64 54 33 23
36 26 18 94 62 50 31 22
34 26 19 91 57 48 28 20
31 27 19 89 58 49 28 19
23 18 15 81 52 46 28 18
21 20 14 79 49 46 28 19
16 21 15 74 45 43 26 18
17 18 12 68 41 38 23 15
24 18 10 64 39 35 21 13
24 18 14 64 36 32 18 12
21 14 12 57 29 27 13 7
21 13 12 57 30 25 13 5
15 12 13 56 29 25 13 8
10 10 16 53 27 23 13 6
5 4 12 45 22 21 12 2
4 4 11 41 20 20 10 2
6 5 9 37 18 17 7 0
6 3 7 34 16 14 6 -2
7 3 5 31 10 12 4 -5
4 6 10 34 13 11 4 -3
0 2 11 31 10 9 2 -5
-2 0 10 25 5 8 0 -7
-8 0 14 24 8 10 1 -5
-13 0 14 24 10 9 2 -6
-14 -4 10 25 9 9 2 -8
-8 -6 8 22 5 5 -4 -10
-1 -6 4 17 -2 0 -9 -14
0 -6 1 9 -5 -4 -10 -16
3 -6 -3 1 -11 -6 -13 -18
4 -2 3 3 -9 -4 -13 -13
2 -3 5 9 -8 -3 -12 -16
-1 -7 6 15 -6 -2 -10 -15
-8 -9 8 18 -5 -3 -11 -16
-11 -6 11 20 -4 -4 -12 -17
-13 -11 8 14 -8 -5 -12 -19
-12 -10 8 11 -8 -3 -12 -16
-14 -10 7 10 -9 -5 -12 -18
-12 -12 3 6 -14 -7 -14 -21
-6 -16 0 2 -17 -12 -17 -21
-9 -15 3 4 -15 -13 -18 -21
-13 -14 5 5 -16 -12 -18 -23
-9 -15 5 6 -16 -13 -18 -23
-6 -12 7 9 -13 -11 -17 -21
-12 -12 10 15 -12 -9 -15 -21
-15 -18 4 10 -16 -11 -16 -23
-16 -17 4 9 -14 -10 -17 -22
-17 -16 3 8 -16 -13 -18 -20
-13 -16 1 4 -19 -14 -20 -24
-9 -15 4 2 -18 -13 -20 -24
-18 -18 7 8 -16 -14 -19 -24
-22 -19 6 8 -16 -15 -20 -26
-21 -19 10 11 -15 -11 -16 -21
-20 -18 10 11 -16 -11 -17 -22
-14 -16 10 13 -17 -12 -18 -24
-9 -20 3 7 -23 -16 -22 -27
-8 -20 4 8 -22 -16 -22 -24
-9 -16 5 7 -21 -16 -21 -26
-12 -17 4 4 -24 -16 -23 -28
-13 -18 4 4 -23 -13 -21 -27
-16 -16 11 13 -18 -9 -19 -24
-22 -17 10 15 -19 -11 -20 -27
-24 -19 14 18 -15 -7 -18 -23
-26 -20 16 21 -11 -5 -15 -17
-20 -18 13 18 -15 -8 -19 -20
-6 -18 6 10 -22 -11 -22 -25
-2 -17 4 10 -23 -12 -24 -27
-8 -13 6 14 -20 -10 -20 -24
-15 -16 8 16 -19 -8 -19 -22
-18 -21 6 12 -21 -11 -20 -23
-15 -14 14 17 -18 -9 -18 -21
-14 -16 13 18 -18 -9 -17 -22
-17 -19 12 18 -20 -7 -19 -23
-22 -19 17 24 -14 -3 -15 -19
-24 -20 18 23 -14 -4 -15 -19
-21 -22 10 14 -19 -5 -17 -22
-16 -19 10 12 -17 -2 -15 -20
-17 -18 9 12 -17 -3 -14 -19
-21 -17 9 17 -16 -1 -12 -19
-20 -20 9 19 -16 -1 -13 -18
-19 -15 13 21 -14 -1 -13 -18
-14 -13 12 19 -17 -2 -15 -20
-10 -12 8 17 -19 -6 -19 -24
-12 -14 13 24 -10 -2 -16 -20
-20 -14 14 26 -12 1 -14 -19
-23 -20 8 21 -16 0 -15 -17
-19 -18 9 21 -13 2 -13 -18
-12 -16 7 21 -15 -2 -14 -20
-8 -18 3 17 -19 -4 -16 -24
-6 -16 5 14 -20 -3 -18 -24
-8 -12 11 18 -16 -2 -16 -22
-12 -12 16 22 -12 2 -11 -18
-15 -15 17 25 -10 4 -11 -15
-20 -15 18 26 -8 4 -11 -17
-25 -12 21 27 -7 6 -8 -16
-23 -17 15 20 -12 4 -11 -19
-16 -16 11 18 -13 2 -14 -22
-7 -15 9 19 -16 -1 -18 -24
-5 -15 5 15 -20 -3 -20 -27
-3 -14 6 12 -20 -3 -19 -26
-4 -10 12 18 -13 -1 -16 -23
-9 -12 13 21 -13 -2 -17 -24
-8 -15 16 24 -12 1 -15 -22
-10 -16 19 29 -8 3 -12 -18
-17 -16 24 29 -8 5 -10 -12
-17 -18 18 19 -13 3 -12 -19
-16 -19 16 16 -13 3 -12 -21
-11 -16 14 16 -13 2 -12 -23
-9 -13 9 12 -15 1 -14 -26
-8 -14 6 11 -16 1 -15 -26
-13 -12 15 20 -8 6 -10 -20
-17 -14 14 21 -11 5 -11 -21
-14 -13 15 18 -9 6 -10 -20
-15 -11 18 24 -4 9 -7 -17
-18 -12 19 28 -3 10 -7 -18
-16 -15 14 25 -7 10 -7 -17
-15 -15 11 21 -8 7 -10 -20
-15 -14 9 19 -12 3 -12 -22
-12 -13 8 16 -14 3 -12 -23
-9 -15 6 14 -19 1 -14 -24
-10 -13 14 21 -14 4 -10 -23
-14 -14 18 24 -12 6 -9 -21
-19 -15 18 19 -11 7 -8 -19
-21 -12 20 14 -9 9 -6 -17
-28 -14 20 21 -5 12 -4 -15
-30 -14 12 20 -11 9 -7 -19
-12 -11 9 19 -11 8 -8 -17
1 -11 4 16 -17 3 -13 -22
-1 -16 1 11 -22 0 -16 -27
-1 -14 1 5 -25 -2 -17 -26
-4 -8 7 11 -18 1 -13 -23
-9 -14 9 14 -18 2 -12 -23
-12 -18 8 15 -15 3 -12 -22
-13 -14 12 20 -13 7 -8 -18
-18 -11 17 26 -8 11 -4 -15
-20 -17 14 19 -13 8 -6 -16
-17 -13 10 17 -14 5 -8 -18
-16 -10 13 20 -13 6 -7 -16
-12 -13 7 15 -18 1 -11 -21
-5 -15 4 10 -22 -2 -14 -23
-9 -12 10 12 -19 1 -13 -20
-10 -16 11 11 -20 0 -14 -20
-10 -15 11 12 -18 3 -11 -15
-13 -16 11 16 -15 5 -9 -15
-17 -17 11 17 -15 5 -9 -16
-19 -19 10 14 -15 5 -9 -15
-16 -18 9 15 -14 5 -9 -15
-11 -14 10 13 -15 4 -8 -16
-9 -14 9 10 -18 2 -9 -19
-8 -16 8 5 -20 -1 -10 -18
-11 -14 15 10 -17 1 -8 -15
-13 -17 14 11 -18 2 -9 -16
-14 -13 14 11 -16 2 -10 -16
-17 -15 15 13 -14 3 -10 -14
-22 -14 12 13 -16 3 -10 -16
-16 -19 7 10 -17 2 -10 -18
-13 -17 7 13 -16 3 -9 -17
-12 -16 8 10 -19 2 -9 -16
-12 -16 7 9 -21 2 -8 -17
-18 -18 8 6 -20 2 -8 -13
-25 -16 14 11 -17 3 -7 -13
-22 -13 17 14 -13 6 -6 -13
-25 -16 16 15 -13 5 -6 -13
-22 -15 16 16 -9 6 -6 -12
-14 -15 10 14 -16 1 -10 -17
-5 -17 4 6 -21 -3 -13 -20
-3 -16 3 8 -20 -2 -12 -18
-6 -14 5 7 -19 -2 -11 -18
-3 -13 2 2 -22 -4 -12 -14
3 -14 -1 -4 -25 -6 -13 -20
0 -11 3 1 -23 -4 -11 -19
-9 -13 7 6 -18 0 -7 -17
-17 -15 10 15 -14 2 -4 -13
-16 -14 12 17 -12 2 -5 -12
-18 -13 12 15 -14 1 -6 -13
-16 -15 7 3 -19 -1 -6 -16
-17 -16 6 0 -20 -1 -5 -14
-14 -18 4 1 -19 0 -4 -14
-13 -20 -2 -1 -20 -1 -6 -17
-6 -21 -5 -5 -23 -4 -8 -20
-8 -18 0 -2 -21 -2 -7 -18
-8 -18 1 -2 -19 -2 -9 -17
-7 -16 1 -1 -19 -2 -9 -14
-11 -14 4 6 -14 1 -6 -12
-16 -15 8 11 -13 2 -4 -11
-16 -19 1 3 -18 -3 -8 -15
-12 -17 1 0 -20 -4 -9 -14
-11 -16 2 0 -20 -4 -8 -14
-12 -15 -1 -5 -23 -5 -9 -16
-9 -18 -4 -8 -25 -6 -10 -17
-14 -17 3 0 -20 -1 -6 -13
-16 -17 5 3 -17 0 -4 -12
-14 -15 7 5 -15 2 -3 -10
-12 -14 6 7 -15 0 -5 -8
-18 -19 6 4 -18 -2 -7 -12
-13 -22 1 -5 -22 -4 -8 -14
-8 -19 1 -8 -20 -4 -8 -14
-8 -15 -2 -5 -21 -7 -10 -16
-7 -16 -4 -4 -24 -10 -12 -18
-2 -16 -4 -7 -25 -8 -11 -17
-5 -11 3 -4 -22 -6 -8 -13
-17 -17 5 -8 -22 -6 -8 -12
-20 -18 7 -10 -19 -2 -4 -8
-20 -14 9 -3 -14 1 0 -5
-24 -15 9 4 -13 1 1 -6
-25 -19 2 2 -13 2 2 -6
-21 -15 1 5 -12 2 3 -2
-20 -16 1 3 -14 1 1 -5
-8 -18 -4 -6 -22 -6 -5 -12
7 -19 -12 -14 -29 -12 -11 -18
5 -15 -6 -8 -25 -9 -9 -14
-1 -17 -4 -7 -24 -8 -7 -13
-5 -22 -4 -7 -24 -8 -7 -13
-11 -19 0 -2 -20 -5 -4 -10
-17 -17 4 3 -17 -3 -2 -7
-15 -21 -2 -3 -21 -7 -3 -11
-13 -20 -1 -3 -19 -6 -3 -9
-13 -18 1 -5 -17 -5 -3 -7
-12 -18 -2 -13 -22 -8 -7 -11
-9 -19 -4 -13 -23 -9 -9 -12
-9 -17 1 -1 -19 -6 -8 -10
-7 -18 0 -2 -20 -8 -8 -13
-8 -20 0 -3 -20 -6 -8 -12
-10 -18 4 -2 -18 -5 -6 -10
-10 -16 6 1 -16 -6 -4 -7
-5 -17 -2 -7 -23 -11 -8 -15
-7 -18 -1 -5 -20 -10 -7 -15
-10 -17 4 -3 -17 -7 -4 -11
-11 -19 3 -7 -19 -10 -7 -14
-4 -19 1 -6 -20 -9 -8 -15
-5 -15 7 3 -15 -5 -6 -12
-10 -19 7 1 -17 -7 -7 -14
-15 -20 10 1 -17 -5 -6 -13
-14 -16 12 3 -14 -3 -4 -12
-20 -14 15 9 -10 1 -2 -9
-20 -21 10 6 -13 0 -4 -6
-14 -18 10 6 -13 0 -5 -10
-10 -15 10 5 -13 0 -5 -13
-10 -18 9 0 -17 -2 -8 -16
-9 -20 7 -1 -18 -3 -9 -16
-9 -14 14 7 -13 2 -6 -10
-13 -15 16 11 -11 4 -4 -7
-16 -17 20 14 -10 7 -1 -6
-16 -12 25 16 -7 9 0 -7
-20 -12 27 21 -4 11 1 -6
-17 -14 24 18 -7 11 1 -8
-17 -11 25 17 -6 12 0 -7
-12 -10 23 15 -9 10 -1 -8
4 -8 18 7 -13 5 -6 -11
11 -7 19 3 -15 6 -5 -13
9 0 28 13 -7 12 -1 -8
-2 1 35 21 -1 16 5 -2
-9 -3 39 26 2 17 6 -2
-10 -1 44 32 7 20 9 1
-14 -2 47 37 8 22 9 1
-11 -10 41 28 1 18 3 -5
-6 -9 41 26 3 19 3 -5
3 -6 40 26 1 17 -1 -7
3 -10 35 23 -1 16 -2 -10
5 -9 36 24 1 17 1 -7
2 -4 37 29 7 21 3 -4
-2 -5 35 32 9 23 6 -2
-5 -7 33 33 12 24 8 -1
-9 -7 31 37 10 25 8 2
-8 -4 32 38 10 27 9 3
-9 -8 25 27 4 24 4 0
-16 -7 24 21 3 22 4 2
-14 -3 24 24 5 21 3 1
-9 -4 19 23 1 18 1 -2
-1 -5 17 22 -2 18 0 0
-1 -2 21 24 0 16 0 0
-6 -5 23 24 -1 16 0 -1
-10 -6 27 27 2 21 3 0
-10 -3 30 30 5 23 6 3
-15 1 29 29 3 24 8 4
-7 -2 22 24 1 25 7 1
-7 -5 18 21 1 25 6 1
-7 -2 18 19 1 24 5 1
-4 -3 15 15 -3 22 3 -2
1 -5 12 12 -5 21 3 1
9 -1 13 13 -5 18 0 -4
7 -9 12 11 -11 13 -4 -9
5 -9 11 9 -11 12 -4 -9
2 -6 16 15 -6 16 -1 -4
-2 -5 18 18 -5 18 1 -2
-2 -10 15 14 -8 17 1 2
-1 -9 13 13 -6 17 0 -2
-4 -9 13 14 -7 16 -1 -5
-5 -10 11 9 -12 13 -4 -9
-2 -10 8 5 -13 12 -7 -11
-3 -8 17 14 -8 12 -5 -8
-6 -8 22 18 -6 14 -5 -8
-12 -15 21 18 -7 14 -5 -8
-14 -15 24 20 -5 15 -5 -7
-15 -13 26 22 -6 14 -5 -8
-12 -19 22 17 -10 12 -6 -11
-11 -17 22 16 -8 13 -6 -10
-13 -15 19 15 -7 13 -7 -12
-12 -18 16 11 -12 10 -8 -14
-8 -17 14 9 -13 11 -6 -11
-10 -15 17 15 -9 10 -6 -11
-14 -18 17 16 -10 10 -8 -13
-17 -19 18 16 -10 11 -6 -13
-17 -16 23 22 -3 15 -2 -10
-21 -16 28 28 -2 17 0 -8
-22 -22 21 22 -9 13 -4 -9
-20 -18 21 22 -6 14 -4 -8
-22 -16 24 24 -6 14 -3 -8
-17 -19 19 18 -12 10 -7 -17
-6 -21 15 11 -14 7 -10 -17
-7 -20 22 18 -10 7 -11 -16
-14 -16 22 20 -11 10 -9 -16
-18 -17 23 21 -8 11 -6 -13
-19 -17 26 23 -5 13 -3 -9
-21 -17 28 24 -5 14 -2 -10
-22 -20 22 16 -9 12 -4 -12
-18 -15 21 17 -9 9 -5 -12
-16 -16 22 18 -10 9 -3 -12
-16 -21 18 10 -14 6 -7 -14
-14 -20 18 6 -13 7 -5 -12
-19 -15 25 17 -4 12 -2 -8
-26 -19 25 21 -5 11 -3 -10
-27 -19 26 24 -1 12 -2 -9
-22 -17 27 24 -2 12 -2 -8
-21 -17 26 23 -3 11 -2 -11
-18 -21 22 16 -6 10 -4 -11
-16 -21 20 14 -7 8 -5 -11
-12 -19 17 14 -10 5 -7 -13
-9 -19 14 8 -13 4 -9 -14
-2 -17 13 0 -16 4 -9 -14
-5 -11 20 6 -11 6 -6 -10
-16 -14 22 10 -9 9 -5 -8
-17 -15 20 11 -6 10 -3 -7
-16 -13 22 16 -2 13 -1 -4
-20 -11 25 20 0 12 -1 -4
-18 -17 18 12 -5 8 -5 -7
-18 -15 18 11 -4 8 -4 -5
-20 -16 18 9 -7 7 -6 -6
-16 -17 13 1 -11 1 -9 -9
-12 -17 13 0 -10 3 -7 -5
-16 -10 21 9 -4 7 -4 -5
-17 -11 22 11 -4 5 -7 -7
-19 -16 25 11 -4 3 -10 -10
-26 -13 35 22 5 9 -5 -3
-29 -11 42 31 12 13 -4 -1
-24 -11 40 31 17 16 -3 -4
-15 -5 38 36 27 23 3 2
-8 1 33 41 34 32 12 7
4 3 25 39 38 37 15 9
10 9 19 42 50 53 28 18
9 16 21 54 66 71 42 30
8 17 22 66 80 87 52 36
18 29 31 86 104 111 72 52
31 44 38 113 137 141 96 68
45 56 41 142 167 174 124 85
62 60 32 152 186 199 147 98
81 71 22 158 206 224 167 112
103 85 7 155 216 241 184 123
118 91 -23 128 209 248 197 131
138 100 -57 101 197 244 200 134
152 113 -86 79 178 229 198 136
161 112 -119 60 157 214 194 136
165 102 -140 42 126 179 166 115
147 75 -143 0 77 121 115 77
121 48 -146 -67 15 62 69 42
107 38 -162 -148 -52 14 40 26
91 39 -170 -206 -104 -27 19 17
77 33 -177 -261 -160 -72 -2 7
62 20 -179 -316 -224 -120 -28 -7
43 15 -175 -343 -256 -145 -46 -14
17 20 -156 -327 -247 -146 -50 -14
-7 12 -141 -306 -237 -150 -59 -18
-20 5 -126 -282 -225 -148 -66 -23
-30 2 -112 -260 -204 -139 -65 -23
-40 -3 -109 -238 -189 -129 -61 -24
-41 -8 -118 -230 -176 -123 -60 -25
-40 -11 -121 -216 -165 -115 -57 -25
-34 -14 -120 -204 -158 -111 -58 -28
-26 -17 -114 -187 -143 -103 -54 -29
-21 -21 -102 -170 -130 -95 -53 -29
-23 -18 -80 -144 -108 -81 -46 -22
-25 -18 -68 -128 -95 -71 -40 -20
-27 -21 -62 -113 -84 -63 -35 -18
-23 -15 -53 -92 -66 -51 -27 -11
-21 -9 -44 -77 -54 -45 -22 -8
-24 -15 -40 -73 -47 -38 -17 -6
-25 -11 -28 -61 -37 -29 -11 1
-21 -9 -22 -54 -32 -27 -10 3
-18 -8 -23 -58 -33 -29 -15 -3
-10 -11 -22 -59 -29 -29 -16 -5
-8 -10 -17 -52 -26 -30 -18 -6
-2 -10 -17 -47 -26 -30 -18 -8
-4 -14 -19 -43 -24 -29 -19 -8
-7 -13 -16 -37 -19 -26 -16 -5
-11 -11 -12 -35 -18 -22 -12 -4
-14 -14 -16 -43 -22 -23 -12 -5
-16 -11 -14 -43 -20 -20 -10 -2
-13 -8 -15 -39 -18 -20 -10 -3
-12 -11 -17 -42 -22 -25 -14 -6
-8 -11 -15 -43 -20 -24 -12 -3
-13 -5 -6 -31 -12 -18 -9 3
-18 -8 -6 -28 -12 -17 -8 2
-15 -8 -6 -27 -12 -18 -9 2
-15 -6 -3 -21 -6 -14 -6 4
-15 -5 -5 -21 -8 -14 -6 2
-13 -12 -10 -29 -12 -16 -7 -1
-11 -12 -12 -35 -15 -17 -10 0
-10 -11 -11 -36 -15 -17 -8 1
-13 -14 -13 -38 -17 -19 -9 -3
-16 -15 -14 -37 -14 -16 -6 0
-19 -8 -7 -29 -8 -12 -3 5
-15 -11 -12 -33 -11 -16 -5 2
-7 -11 -19 -41 -15 -21 -10 -2
1 -8 -17 -37 -7 -16 -5 3
-3 -9 -19 -35 -9 -19 -7 2
-2 -14 -27 -46 -14 -22 -10 0
0 -7 -27 -51 -14 -24 -10 1
-1 -8 -27 -56 -21 -26 -13 -2
1 -9 -29 -62 -22 -30 -17 -3
2 -7 -34 -63 -25 -30 -17 -4
-5 -9 -25 -49 -17 -26 -12 2
-7 -11 -24 -48 -17 -26 -10 2
-5 -11 -24 -47 -16 -26 -10 2
-3 -6 -22 -43 -8 -23 -7 4
-10 -8 -20 -40 -8 -24 -7 5
-9 -11 -28 -50 -18 -29 -11 0
1 -5 -29 -52 -19 -31 -14 1
4 -5 -28 -55 -21 -33 -16 -1
0 -7 -29 -57 -23 -33 -16 0
-2 -10 -32 -59 -24 -35 -16 -1
-4 -6 -24 -45 -17 -32 -14 4
-6 -8 -21 -40 -15 -33 -13 2
-4 -10 -23 -40 -14 -35 -15 0
-2 -6 -20 -37 -12 -34 -13 1
-8 -8 -16 -34 -11 -33 -12 2
-7 -13 -23 -41 -16 -34 -14 0
-2 -8 -25 -43 -17 -35 -16 0
-2 -6 -23 -41 -16 -34 -14 -1
-5 -11 -28 -47 -22 -40 -19 -5
0 -8 -29 -48 -20 -38 -16 -3
-4 -4 -22 -37 -14 -34 -13 0
-8 -9 -21 -35 -14 -33 -13 -1
-5 -7 -22 -30 -11 -31 -11 2
-1 -3 -20 -26 -9 -29 -8 4
-3 -2 -15 -21 -6 -27 -7 6
-1 -5 -20 -29 -10 -30 -8 5
1 -2 -21 -29 -10 -31 -9 4
2 -2 -19 -28 -9 -31 -10 3
1 -4 -21 -32 -11 -34 -12 0
2 -5 -21 -36 -13 -33 -12 -1
-1 -1 -13 -25 -5 -27 -8 4
4 -2 -15 -21 -4 -29 -10 0
2 -3 -15 -15 -1 -25 -7 5
-5 -3 -9 -9 6 -19 -1 11
-6 -2 -9 -8 4 -18 -2 9
0 -5 -16 -21 -1 -21 -1 7
0 -2 -15 -26 -1 -19 1 9
9 6 -19 -28 -4 -22 -2 6
13 7 -22 -27 -5 -22 -3 5
14 6 -23 -22 -2 -21 -1 10
5 5 -14 -9 7 -15 2 14
-2 2 -14 -8 9 -14 3 12
3 4 -13 -5 12 -10 7 16
9 10 -10 1 16 -7 8 17
6 6 -10 3 15 -10 6 16
11 0 -19 -4 10 -14 4 13
19 6 -20 -4 10 -13 5 13
19 9 -18 -4 10 -11 4 13
19 4 -19 -8 9 -12 5 11
17 5 -17 -9 11 -9 8 14
8 9 -8 7 23 0 14 21
11 11 -10 12 25 2 16 21
13 13 -11 12 25 2 16 21
12 12 -8 14 30 6 17 23
12 13 -9 17 34 8 19 23
14 9 -16 12 28 7 19 23
18 13 -16 15 30 8 19 24
22 18 -15 16 30 7 18 23
25 16 -17 15 30 6 16 20
26 17 -15 17 33 10 19 24
21 19 -8 28 40 14 20 26
19 21 -6 30 43 15 23 28
26 21 -7 32 44 17 24 28
32 24 -8 36 47 18 24 28
28 24 -10 41 49 20 26 29
24 22 -14 35 46 19 27 29
26 23 -12 37 48 23 29 31
28 25 -10 41 51 24 30 32
28 23 -12 42 52 23 29 29
28 24 -9 46 58 26 33 37
28 28 -3 60 62 29 34 36
28 27 -5 64 63 29 35 34
33 29 -6 64 64 31 35 33
39 31 -4 63 64 33 37 36
38 32 -4 62 64 34 38 35
40 28 -11 58 60 34 37 33
37 28 -11 63 64 36 37 34
42 32 -10 65 64 35 38 33
43 29 -11 63 61 31 34 31
47 29 -12 62 63 31 34 31
49 34 -5 74 70 35 36 34
49 34 -5 73 68 34 34 32
48 34 -5 74 71 34 35 34
42 37 3 86 74 40 42 40
40 36 3 89 74 38 41 39
44 31 -6 77 67 35 39 35
50 35 -5 71 66 35 40 36
47 36 -3 72 64 35 40 36
42 33 -6 72 61 32 38 35
44 31 -8 69 60 33 37 34
37 35 0 77 66 34 40 37
38 34 0 76 64 34 37 35
41 30 -3 75 61 33 35 34
42 33 -1 75 65 34 38 36
39 33 -2 74 63 31 36 36
37 27 -9 62 54 27 35 33
40 29 -7 58 53 27 34 32
38 30 -5 57 52 26 33 32
37 25 -9 47 43 19 28 29
36 25 -9 45 41 18 28 28
28 28 -4 48 44 19 28 29
28 27 -5 44 40 16 26 27
31 24 -4 40 38 14 25 27
26 26 -3 40 37 12 25 27
17 23 -4 37 34 11 23 27
21 15 -11 24 27 6 20 23
27 20 -10 22 26 5 19 24
21 17 -9 18 22 2 18 23
18 12 -12 9 13 -5 11 17
23 13 -12 5 11 -8 9 16
19 14 -7 8 15 -8 7 14
14 10 -7 5 14 -11 4 11
9 6 -7 2 11 -9 5 13
3 5 -4 5 13 -7 6 15
-3 3 -6 5 10 -10 6 12
0 3 -10 -5 1 -15 2 10
-4 1 -8 -9 0 -15 2 12
-8 1 -5 -11 -2 -15 2 12
-3 -4 -11 -19 -9 -21 -4 7
5 -6 -15 -25 -11 -26 -7 3
11 1 -11 -23 -9 -28 -9 2
3 -2 -8 -22 -12 -28 -10 0
0 -1 -8 -23 -13 -28 -11 1
0 0 -6 -19 -10 -26 -11 2
-5 -4 -8 -18 -11 -28 -11 0
-7 -9 -11 -25 -14 -28 -11 -1
-5 -5 -10 -28 -16 -29 -13 0
-2 -4 -11 -26 -17 -32 -14 -2
-3 -7 -12 -28 -21 -35 -17 -4
-2 -10 -13 -33 -25 -37 -18 -3
-6 -6 -6 -26 -21 -34 -15 -2
-7 -6 -3 -26 -22 -34 -15 -4
-7 -10 -4 -32 -24 -35 -16 -5
-2 -7 -4 -29 -23 -33 -16 -6
-1 -10 -5 -26 -22 -35 -18 -7
-1 -13 -11 -34 -29 -38 -19 -10
-8 -12 -8 -34 -27 -35 -16 -4
-11 -14 -7 -32 -28 -35 -17 -5
-12 -18 -9 -35 -29 -37 -18 -7
-10 -17 -9 -36 -28 -36 -18 -6
-12 -11 -4 -29 -27 -36 -18 -5
-13 -11 -2 -26 -27 -35 -19 -5
-13 -14 -1 -24 -26 -35 -17 -3
-19 -12 2 -20 -21 -31 -15 1
-23 -11 2 -21 -20 -32 -15 0
-22 -19 -5 -30 -27 -35 -18 -4
-15 -13 -4 -31 -26 -35 -20 -4
-10 -15 -6 -36 -29 -41 -24 -9
-7 -20 -10 -41 -38 -47 -28 -14
0 -17 -9 -39 -37 -44 -27 -11
-10 -12 -1 -30 -31 -41 -24 -8
-11 -13 0 -29 -31 -41 -24 -8
-10 -16 3 -25 -27 -37 -22 -6
-12 -14 6 -21 -23 -34 -19 -2
-20 -16 7 -17 -21 -32 -17 -1
-16 -19 4 -23 -26 -34 -17 -2
-11 -15 5 -24 -23 -35 -17 -3
-7 -12 5 -26 -27 -36 -19 -2
-9 -18 1 -32 -34 -41 -24 -5
-7 -20 1 -32 -33 -40 -23 -6
-12 -14 8 -24 -28 -37 -21 -3
-14 -15 9 -21 -25 -36 -20 -3
-14 -13 11 -16 -21 -32 -17 0
-15 -10 14 -11 -16 -29 -14 4
-20 -13 13 -13 -18 -32 -15 1
-18 -16 11 -16 -20 -31 -16 2
-18 -15 13 -14 -21 -31 -14 2
-16 -13 13 -14 -23 -34 -18 -1
-7 -17 6 -22 -30 -38 -25 -6
2 -15 2 -29 -32 -39 -27 -8
-2 -9 9 -21 -25 -35 -22 -2
-10 -9 7 -18 -23 -35 -21 -2
-12 -13 7 -21 -23 -32 -18 0
-12 -8 7 -17 -20 -28 -15 2
-14 -12 7 -12 -15 -26 -14 6
-10 -16 -1 -19 -20 -26 -15 2
-7 -12 2 -16 -19 -23 -12 5
-12 -14 2 -18 -19 -26 -16 1
-9 -16 -1 -24 -25 -31 -20 -4
-5 -14 -2 -28 -27 -33 -19 -3
-11 -9 5 -22 -23 -28 -15 1
-13 -9 5 -21 -21 -27 -15 0
-11 -12 4 -18 -20 -25 -13 2
-12 -12 7 -12 -15 -23 -11 5
-18 -13 7 -13 -16 -23 -12 3
-19 -16 3 -19 -18 -23 -13 2
-17 -9 7 -16 -16 -21 -11 7
-20 -5 7 -16 -17 -24 -13 4
-18 -10 2 -22 -19 -28 -17 0
-4 -11 1 -25 -19 -28 -18 1
-3 -6 9 -18 -17 -29 -17 2
-6 -7 7 -17 -18 -29 -17 0
-5 -8 7 -16 -17 -26 -16 0
-10 -9 11 -10 -11 -19 -11 4
-13 -8 9 -11 -11 -21 -12 2
-6 -13 3 -17 -14 -21 -13 0
-7 -9 4 -17 -15 -19 -12 3
-8 -5 6 -14 -14 -18 -9 4
-4 -10 -1 -20 -22 -25 -14 -1
-1 -13 -1 -20 -21 -25 -12 1
-2 -5 8 -10 -14 -22 -11 2
-4 -5 8 -9 -14 -24 -13 -2
-5 -7 7 -8 -10 -23 -13 -1
-8 -8 12 -6 -7 -18 -7 3
-11 -9 11 -11 -12 -18 -9 1
-7 -12 5 -20 -14 -20 -11 -1
-6 -10 5 -18 -13 -19 -10 3
-8 -9 5 -16 -13 -17 -9 0
-5 -8 1 -22 -18 -19 -13 -3
-4 -9 1 -24 -17 -18 -10 -1
-10 -5 8 -13 -8 -15 -8 3
-8 -5 6 -10 -6 -16 -10 1
-5 -5 4 -8 -7 -15 -9 2
-7 -7 7 -9 -7 -13 -7 3
-13 -9 8 -15 -8 -13 -9 2
-9 -10 2 -25 -11 -13 -9 2
-4 -7 0 -21 -11 -15 -10 2
-6 -10 1 -19 -13 -19 -11 -1
-4 -5 -3 -23 -18 -23 -15 -4
-4 -9 -1 -24 -14 -21 -12 -1
-10 -7 6 -15 -11 -17 -9 1
-5 -5 8 -14 -11 -18 -10 1
-2 -7 6 -16 -11 -18 -10 1
0 -5 9 -12 -4 -14 -8 3
-6 -6 8 -12 -7 -16 -11 0
-9 -15 2 -19 -12 -18 -11 -1
-5 -11 2 -21 -14 -18 -11 -1
-6 -8 3 -21 -14 -19 -13 -3
-7 -13 -1 -23 -17 -20 -14 -4
-4 -11 0 -22 -15 -19 -12 -2
-14 -6 8 -16 -10 -16 -11 1
-17 -5 9 -14 -8 -14 -9 2
-16 -5 8 -15 -7 -12 -7 4
-14 -4 9 -12 -4 -11 -7 6
-8 -5 4 -17 -9 -15 -12 1
4 -10 -5 -27 -18 -21 -17 -5
6 -9 -6 -27 -19 -24 -18 -5
5 -9 -4 -29 -19 -25 -20 -7
2 -12 -7 -34 -23 -26 -21 -10
-1 -11 -5 -32 -22 -22 -16 -6
-7 -7 4 -19 -12 -17 -14 -3
-14 -11 2 -18 -12 -18 -15 -4
-14 -14 3 -17 -11 -16 -14 -2
-15 -10 6 -10 -4 -12 -11 1
-13 -12 3 -15 -7 -17 -13 -1
-5 -15 -4 -25 -17 -22 -17 -4
-5 -12 -3 -24 -16 -21 -17 -4
-5 -7 -2 -23 -15 -20 -16 -4
-2 -12 -7 -32 -19 -25 -19 -8
0 -13 -7 -32 -18 -24 -18 -6
-2 -7 1 -24 -11 -21 -17 -3
-5 -11 -1 -24 -15 -26 -22 -7
-2 -11 -4 -25 -14 -25 -21 -7
-1 -5 2 -18 -8 -20 -17 -2
-5 -6 -1 -19 -9 -20 -18 -4
-6 -12 -4 -25 -14 -22 -17 -4
-7 -9 -3 -26 -11 -21 -17 -2
-4 -6 -2 -23 -11 -22 -17 -4
0 -6 -6 -29 -17 -26 -22 -9
1 -10 -7 -33 -18 -27 -23 -9
-4 -8 1 -26 -10 -22 -20 -7
-7 -9 1 -23 -9 -21 -19 -7
-6 -11 -3 -23 -10 -22 -19 -7
-6 -9 1 -14 -2 -18 -15 -2
-13 -10 2 -10 -1 -17 -14 -2
-7 -14 -1 -17 -8 -18 -16 -2
-4 -10 -1 -21 -7 -20 -17 -4
-7 -11 2 -25 -9 -23 -18 -4
2 -10 -5 -31 -15 -29 -23 -10
9 -10 -6 -28 -11 -28 -24 -9
6 -6 0 -24 -10 -26 -23 -10
2 -6 0 -23 -10 -24 -22 -8
-3 -8 -1 -21 -9 -21 -21 -7
-8 -7 3 -17 -3 -18 -18 -2
-11 -8 2 -19 -6 -20 -20 -5
-7 -13 -7 -27 -10 -23 -25 -9
-3 -12 -5 -25 -9 -23 -23 -8
-4 -9 -3 -21 -5 -22 -22 -7
-2 -12 -7 -28 -13 -26 -26 -12
0 -11 -5 -26 -11 -23 -24 -8
-11 -8 5 -15 -3 -18 -19 -4
-11 -9 5 -13 1 -21 -21 -7
-10 -10 4 -13 5 -21 -22 -9
-8 -6 8 -10 7 -20 -21 -8
-4 -7 5 -14 -1 -22 -23 -10
2 -13 -3 -24 -8 -26 -26 -14
6 -12 -5 -25 -9 -25 -24 -14
4 -12 -4 -25 -11 -25 -23 -14
8 -11 -8 -29 -13 -25 -23 -12
6 -10 -7 -29 -11 -23 -22 -11
1 -4 1 -19 -5 -20 -19 -8
0 0 0 -18 -5 -22 -20 -10
-3 -6 0 -18 -4 -22 -20 -9
-5 -4 3 -14 1 -19 -17 -5
-9 -6 3 -13 3 -19 -18 -7
1 -9 -7 -23 -4 -24 -24 -11
2 -8 -8 -25 -5 -25 -24 -11
4 -4 -7 -25 -7 -27 -24 -13
7 -5 -11 -28 -14 -29 -26 -15
7 -7 -9 -28 -9 -27 -24 -12
4 -2 -1 -19 -2 -25 -21 -10
2 -2 2 -15 -3 -23 -21 -10
-1 -5 1 -14 -2 -22 -21 -10
-3 -1 6 -9 3 -20 -18 -7
-7 -1 6 -6 3 -21 -19 -9
-5 -8 -1 -17 -4 -24 -22 -12
0 -8 1 -19 -3 -21 -20 -9
2 -8 -1 -24 -2 -24 -21 -12
7 -11 -8 -28 -10 -28 -26 -16
9 -14 -9 -28 -11 -28 -27 -16
5 -12 -2 -21 -5 -27 -25 -14
2 -10 -1 -20 -4 -27 -23 -14
1 -13 0 -19 -3 -26 -23 -13
-1 -7 4 -12 4 -20 -17 -6
-3 -3 3 -13 6 -22 -18 -8
0 -7 -5 -24 -2 -25 -20 -11
0 -7 -3 -26 -2 -23 -20 -10
-1 -4 -6 -28 -3 -25 -25 -13
7 -8 -12 -31 -9 -30 -29 -17
7 -6 -12 -26 -7 -27 -28 -14
-1 -2 -5 -16 0 -26 -27 -11
0 -3 -4 -17 2 -27 -27 -14
4 -3 -4 -16 2 -25 -26 -11
1 -1 0 -11 7 -21 -23 -8
-2 -3 2 -10 7 -22 -22 -9
-1 -11 -7 -18 2 -26 -25 -14
1 -10 -6 -17 2 -26 -25 -13
5 -3 -5 -17 3 -26 -24 -14
8 -7 -9 -27 -4 -32 -28 -19
14 -6 -9 -29 -4 -29 -26 -17
12 1 -2 -21 4 -23 -21 -14
10 0 -4 -21 5 -23 -21 -13
10 1 -2 -18 8 -20 -17 -11
5 3 3 -11 13 -16 -14 -5
-2 1 3 -8 14 -17 -14 -7
6 1 -2 -17 9 -20 -16 -9
9 4 0 -17 10 -21 -18 -7
4 5 3 -18 10 -22 -17 -8
9 1 3 -22 7 -23 -18 -11
12 0 4 -22 9 -22 -19 -11
5 7 13 -8 18 -15 -16 -5
1 3 12 -6 19 -15 -15 -6
4 7 13 -7 17 -16 -16 -9
5 9 19 0 24 -12 -13 -4
-1 5 18 1 24 -13 -14 -8
3 -1 11 -8 20 -15 -14 -10
9 3 9 -9 20 -15 -13 -10
11 2 7 -8 20 -15 -15 -10
15 0 0 -13 16 -17 -16 -13
16 0 -2 -12 18 -15 -15 -11
15 5 -1 -8 20 -16 -17 -10
11 2 -4 -10 18 -19 -18 -12
8 2 -7 -12 15 -20 -17 -12
7 2 0 -8 22 -16 -13 -8
4 4 -3 -10 18 -19 -17 -12
8 -4 -13 -20 9 -24 -20 -15
11 1 -11 -18 10 -22 -19 -14
11 2 -11 -20 10 -24 -20 -14
15 1 -18 -29 4 -27 -23 -20
22 4 -17 -29 6 -25 -21 -15
19 8 -12 -22 10 -23 -20 -13
16 4 -14 -19 10 -23 -20 -16
20 7 -15 -19 12 -21 -17 -14
15 8 -11 -11 17 -20 -14 -9
7 10 -13 -8 16 -22 -14 -11
14 9 -19 -17 9 -24 -17 -13
16 11 -20 -24 6 -24 -18 -13
13 5 -18 -30 6 -25 -18 -13
14 -2 -24 -42 -2 -30 -23 -18
16 -1 -23 -32 2 -26 -20 -16
3 3 -16 -17 10 -22 -15 -11
3 5 -18 -18 8 -25 -16 -13
13 4 -19 -21 7 -25 -16 -14
11 4 -15 -16 10 -21 -14 -10
12 3 -18 -20 9 -25 -18 -16
20 -1 -28 -30 2 -30 -22 -21
15 -3 -25 -28 1 -28 -22 -21
11 1 -21 -22 3 -26 -20 -19
10 -4 -25 -28 1 -31 -24 -23
11 -6 -24 -28 1 -30 -26 -23
2 -3 -15 -16 5 -30 -24 -20
3 -4 -16 -17 3 -33 -27 -24
4 -6 -17 -22 2 -32 -26 -23
1 -4 -11 -22 5 -29 -23 -20
-3 -6 -11 -24 3 -31 -24 -22
-1 -11 -18 -29 -1 -32 -24 -24
3 -9 -20 -25 0 -32 -24 -24
0 -9 -20 -27 -1 -32 -26 -26
-1 -13 -25 -33 -5 -35 -29 -29
4 -11 -26 -30 -3 -32 -27 -29
3 -4 -21 -23 1 -30 -27 -27
5 -4 -22 -23 0 -33 -28 -28
7 -8 -23 -26 2 -35 -28 -29
6 -7 -19 -21 4 -33 -26 -26
1 -7 -15 -17 7 -32 -27 -25
6 -9 -21 -25 4 -35 -29 -28
10 -6 -23 -25 2 -34 -29 -27
9 -6 -22 -24 1 -35 -29 -28
8 -11 -26 -32 -5 -39 -34 -33
12 -12 -26 -31 -3 -38 -34 -32
6 -6 -20 -19 4 -37 -33 -31
4 -8 -19 -17 5 -36 -32 -31
6 -7 -19 -21 4 -34 -31 -30
5 -4 -15 -19 7 -29 -27 -27
1 -7 -14 -19 7 -30 -28 -27
2 -11 -24 -28 0 -34 -32 -31
4 -7 -23 -26 2 -33 -31 -30
6 -6 -21 -18 6 -33 -29 -28
6 -11 -27 -25 3 -39 -34 -35
8 -10 -27 -25 6 -38 -34 -33
4 -4 -20 -21 10 -36 -35 -30
2 -5 -20 -23 7 -34 -34 -31
2 -7 -21 -22 8 -36 -35 -33
5 -4 -18 -13 13 -33 -33 -29
5 -3 -19 -14 10 -37 -34 -32
6 -8 -24 -23 3 -38 -34 -33
-4 -7 -21 -26 6 -35 -30 -28
-6 -7 -16 -25 12 -30 -25 -25
-4 -10 -24 -33 6 -34 -29 -30
-4 -9 -24 -27 9 -32 -28 -26
-6 -4 -19 -19 15 -30 -27 -27
-9 -6 -20 -19 12 -30 -26 -29
-1 -5 -21 -22 11 -32 -29 -29
5 -2 -18 -20 12 -32 -27 -27
4 -6 -22 -25 7 -35 -30 -33
5 -11 -26 -32 4 -36 -29 -32
7 -6 -26 -31 5 -34 -29 -31
8 -5 -24 -26 4 -35 -28 -30
11 -8 -25 -28 0 -38 -33 -34
15 -6 -20 -27 3 -39 -35 -34
8 2 -5 -11 16 -34 -31 -30
-1 1 2 0 27 -30 -29 -28
1 4 4 11 36 -23 -27 -26
-6 5 9 21 47 -10 -16 -17
-10 10 5 23 56 1 -6 -11
1 12 -4 23 62 13 4 -4
13 17 -8 28 72 26 15 4
19 21 -10 36 83 40 27 12
29 24 -14 42 92 52 36 18
40 37 -7 56 115 77 57 34
45 53 6 89 152 113 84 56
60 66 8 111 181 144 110 73
74 74 6 127 203 174 135 89
90 87 1 141 226 203 160 108
102 101 -11 139 236 221 179 117
123 109 -38 117 233 234 195 129
135 117 -66 91 222 231 200 134
150 124 -99 63 200 213 195 132
166 125 -135 37 175 193 183 125
174 106 -148 26 152 161 156 101
154 79 -141 -4 107 104 102 58
125 56 -143 -80 39 41 56 25
106 47 -151 -150 -19 -3 31 12
84 46 -156 -203 -76 -41 13 8
63 43 -165 -261 -144 -90 -11 -2
45 33 -175 -320 -213 -140 -40 -14
26 30 -167 -334 -231 -160 -53 -18
6 29 -151 -319 -227 -165 -62 -21
-10 20 -140 -303 -225 -171 -74 -32
-21 16 -122 -276 -208 -163 -76 -34
-40 17 -102 -243 -185 -152 -73 -32
-47 12 -99 -226 -171 -145 -75 -37
-42 10 -102 -209 -155 -133 -69 -36
-44 9 -102 -190 -137 -121 -62 -31
-50 5 -105 -181 -130 -114 -58 -32
-42 -5 -110 -176 -127 -110 -58 -35
-26 -6 -102 -161 -115 -106 -58 -36
-10 -6 -93 -145 -104 -103 -61 -41
-2 -11 -90 -132 -96 -100 -60 -44
-4 -14 -80 -114 -81 -87 -52 -37
-11 -10 -66 -94 -65 -75 -43 -32
-11 -12 -61 -88 -57 -68 -39 -30
-9 -5 -51 -76 -44 -57 -31 -25
-13 0 -36 -53 -24 -45 -22 -16
-19 -3 -31 -43 -19 -43 -21 -18
-12 -5 -33 -45 -22 -41 -22 -19
-7 0 -27 -39 -17 -39 -20 -18
-6 1 -26 -33 -16 -39 -21 -19
-1 -5 -26 -33 -17 -39 -22 -21
2 -4 -23 -29 -10 -34 -21 -18
-9 -1 -17 -18 -1 -30 -18 -15
-10 -2 -16 -15 0 -28 -16 -14
-9 -2 -18 -13 -2 -31 -17 -14
-13 0 -11 -7 4 -28 -15 -11
-15 -2 -9 -12 4 -28 -15 -12
-16 -6 -15 -21 -2 -28 -14 -12
-12 -3 -13 -15 1 -24 -11 -9
-10 -2 -13 -10 1 -25 -11 -10
-10 -7 -18 -14 -5 -28 -14 -13
-7 -5 -16 -14 0 -24 -11 -9
-11 1 -9 -6 7 -20 -8 -8
-13 2 -11 -7 7 -20 -9 -9
-13 1 -11 -3 5 -19 -8 -8
-15 -1 -7 1 10 -17 -7 -5
-13 -1 -7 0 7 -18 -9 -7
-7 -7 -14 -8 2 -21 -9 -8
-7 -3 -15 -7 1 -22 -10 -9
-5 1 -15 -7 0 -25 -10 -9
-6 -7 -20 -13 -7 -29 -13 -11
-4 -3 -19 -11 -2 -23 -9 -6
-8 7 -13 0 5 -20 -6 -3
-15 3 -15 -3 2 -23 -7 -5
-11 0 -15 -9 -2 -23 -5 -4
-10 0 -13 -8 1 -20 -4 -1
-6 0 -17 -11 -6 -25 -6 -5
-1 -3 -27 -17 -14 -30 -9 -8
-6 -1 -26 -16 -12 -31 -9 -7
-9 0 -20 -11 -7 -29 -6 -4
-10 -1 -25 -15 -13 -32 -8 -10
-5 -3 -23 -15 -11 -29 -6 -6
-9 3 -18 -10 -6 -25 -4 -3
-11 2 -18 -9 -5 -23 -4 -4
-9 -1 -20 -10 -5 -22 -4 -4
-8 2 -16 -3 0 -20 0 0
-16 -4 -19 -5 -6 -26 -3 -5
-12 -8 -24 -12 -11 -27 -5 -6
-8 -1 -22 -10 -10 -27 -4 -5
-10 -1 -21 -7 -10 -31 -6 -7
-11 -6 -21 -10 -12 -31 -6 -8
-8 -4 -19 -9 -8 -26 -2 -4
-7 6 -12 -1 -1 -22 2 0
-9 4 -13 1 0 -23 2 -1
-10 -2 -16 0 0 -23 1 -2
-12 2 -9 4 5 -19 5 3
-15 1 -12 1 -1 -21 2 -1
-9 -7 -19 -9 -10 -24 0 -4
-5 -3 -18 -7 -7 -22 2 -1
-7 0 -18 -1 -6 -23 1 -2
-9 -5 -22 -2 -9 -26 -2 -5
-5 -2 -18 2 -3 -21 3 1
-11 3 -10 10 3 -17 7 5
-13 2 -9 7 2 -17 7 5
-13 0 -11 4 0 -16 6 5
-13 3 -7 10 5 -14 7 6
-16 3 -7 11 2 -16 6 4
-15 -4 -12 5 -2 -16 5 3
-18 0 -9 9 2 -14 8 6
-13 4 -12 12 1 -15 8 5
-6 1 -21 6 -6 -21 3 0
-8 0 -15 12 1 -13 7 6
-16 7 -8 21 8 -9 12 11
-16 7 -10 19 5 -8 11 10
-8 8 -12 16 8 -7 11 11
1 11 -11 19 8 -6 12 11
3 9 -12 19 5 -7 13 9
3 4 -16 17 3 -6 13 11
0 4 -14 22 7 -4 15 13
2 9 -13 25 9 -4 14 12
5 6 -20 17 1 -8 9 9
8 6 -19 17 4 -4 13 13
5 14 -14 28 11 0 16 16
2 13 -14 30 11 2 18 16
-2 9 -12 32 15 7 21 19
1 11 -8 39 19 11 24 22
3 11 -9 40 18 7 23 19
7 12 -12 36 15 7 24 20
5 15 -10 38 18 10 27 23
5 15 -11 37 17 11 28 22
10 13 -17 35 14 10 26 20
12 14 -18 38 18 13 29 24
8 20 -11 49 26 18 34 28
7 18 -11 51 27 19 35 29
3 15 -12 53 28 21 36 31
4 21 -6 62 35 26 40 36
5 21 -5 63 33 23 38 33
11 15 -11 58 28 23 37 32
16 21 -6 64 34 28 40 35
12 21 -5 68 35 27 41 36
14 18 -9 64 32 25 39 33
24 24 -8 68 36 28 41 36
22 32 -3 79 45 33 45 39
20 31 -3 83 45 36 47 40
15 25 -4 84 46 37 48 41
18 32 1 88 53 41 52 45
17 34 3 94 55 41 53 44
19 28 -1 93 49 42 51 44
16 32 3 97 53 46 54 47
13 36 5 99 55 49 57 50
14 34 0 95 54 50 58 49
13 36 5 101 59 57 65 56
16 41 10 113 65 58 66 56
26 38 5 113 64 56 63 53
38 38 -1 110 61 54 62 50
36 41 2 110 63 56 63 52
31 43 2 110 63 57 64 50
32 37 -5 105 59 54 62 49
30 38 -4 107 57 53 60 49
28 40 1 113 60 55 63 51
27 34 -3 109 57 54 62 50
29 37 -1 111 61 56 64 55
26 44 8 123 67 58 68 58
22 40 7 125 68 57 69 57
26 41 7 125 68 57 68 56
23 43 10 122 64 56 67 56
24 41 9 112 57 52 65 52
35 37 1 100 51 50 64 50
34 37 -1 102 51 50 64 50
32 39 -1 104 50 49 64 50
32 35 -6 99 45 46 61 48
30 37 -2 101 46 48 62 53
24 42 7 112 54 51 65 56
22 39 5 109 51 50 64 55
20 37 4 103 49 49 64 54
15 41 9 104 50 50 67 56
7 32 9 103 46 47 64 52
13 27 1 91 35 42 60 47
16 33 1 84 32 39 57 46
12 31 -1 77 27 33 53 42
15 23 -9 66 19 26 46 36
18 27 -6 67 19 28 48 41
8 31 1 74 24 29 50 44
7 26 2 71 20 28 50 42
6 23 0 65 14 25 48 40
1 26 4 65 17 28 50 44
-5 22 5 62 14 24 49 41
-5 14 -2 49 2 17 45 37
-4 18 -1 45 -2 13 42 36
-6 18 0 41 -5 10 39 34
-5 11 -8 27 -15 3 31 28
1 12 -8 25 -15 4 30 30
-2 16 -5 30 -11 2 28 28
-6 11 -6 31 -12 0 27 25
-9 9 -5 29 -17 -2 27 25
-16 11 1 31 -14 2 29 31
-18 10 -1 23 -21 -1 28 27
-16 4 -7 10 -30 -6 25 24
-16 8 -7 13 -29 -6 25 25
-17 9 -6 15 -30 -8 24 23
-13 -2 -14 1 -42 -17 16 14
-5 3 -11 1 -40 -13 19 18
-11 5 -6 7 -36 -12 21 19
-17 -1 -9 6 -38 -15 19 15
-16 -2 -8 7 -39 -16 18 16
-20 0 0 11 -33 -16 19 19
-25 0 -1 6 -40 -20 16 14
-22 -3 -6 -5 -48 -23 13 12
-23 -5 -5 -7 -48 -23 12 13
-23 -5 -6 -7 -47 -23 11 13
-13 -9 -13 -12 -56 -28 7 8
-8 -7 -14 -12 -56 -28 5 9
-15 -1 -6 -2 -47 -25 10 14
-22 -4 -7 -4 -48 -26 9 11
-24 -4 -6 -3 -51 -25 10 12
-25 -1 0 3 -45 -22 13 18
-27 -7 -1 0 -50 -27 9 12
-23 -13 -7 -10 -55 -30 6 8
-25 -10 -3 -11 -54 -29 6 10
-30 -9 -1 -10 -53 -28 6 11
-26 -14 -9 -14 -60 -32 2 4
-23 -10 -6 -9 -55 -26 7 10
-30 -3 3 0 -46 -23 11 14
-37 -9 2 -4 -49 -25 9 11
-36 -12 -1 -5 -52 -26 8 10
-33 -9 4 0 -43 -25 8 12
-32 -12 2 -4 -46 -29 6 9
-29 -16 -5 -13 -56 -31 3 7
-26 -12 -4 -11 -56 -29 5 9
-25 -10 -2 -10 -54 -29 4 8
-23 -16 -7 -14 -56 -32 2 4
-26 -16 -3 -9 -50 -29 5 8
-29 -9 3 2 -48 -25 7 11
-28 -9 3 0 -47 -25 6 11
-34 -13 0 -5 -55 -28 3 9
-38 -8 7 -4 -52 -26 6 14
-38 -12 8 -10 -54 -28 4 12
-31 -17 0 -17 -62 -29 3 10
-29 -13 -2 -15 -62 -29 2 10
-33 -11 0 -11 -61 -30 3 9
-32 -17 -7 -14 -66 -32 1 6
-25 -12 -3 -10 -62 -27 5 11
-30 -6 5 -3 -54 -22 10 15
-35 -10 5 -7 -58 -23 9 12
-33 -11 3 -8 -60 -24 7 13
-30 -9 8 1 -54 -23 9 15
-29 -11 7 0 -58 -26 7 12
-22 -14 -1 -10 -65 -31 4 9
-24 -15 -3 -15 -67 -31 1 7
-21 -11 -3 -14 -67 -31 2 6
-17 -15 -9 -18 -70 -31 2 3
-15 -13 -9 -13 -63 -27 5 7
-18 -3 1 -2 -58 -23 9 11
-23 -7 0 0 -59 -24 7 9
-28 -11 -1 -1 -59 -24 8 10
-25 -2 6 5 -52 -20 12 15
-29 -6 6 2 -56 -23 10 13
-22 -9 -1 -7 -64 -26 7 11
-19 -7 -2 -7 -63 -26 7 10
-19 -7 -4 -6 -65 -28 5 8
-15 -10 -8 -13 -70 -31 3 4
-10 -8 -8 -15 -68 -31 2 5
-12 -2 -1 -9 -62 -27 6 8
-11 -4 -2 -7 -61 -27 8 8
-14 -8 -5 -5 -62 -26 9 7
-16 -8 2 1 -57 -22 12 11
-17 -7 0 -4 -61 -25 8 8
-10 -9 -8 -14 -66 -29 6 6
-7 -10 -8 -14 -64 -27 9 9
-7 -13 -10 -13 -65 -29 7 6
-3 -13 -16 -17 -69 -31 6 3
2 -9 -13 -13 -65 -27 9 7
-4 -7 -7 -9 -61 -25 10 8
-4 -8 -6 -9 -59 -27 9 5
-2 -12 -7 -9 -60 -27 9 5
0 -8 -2 -4 -54 -22 11 9
1 -8 -2 -10 -56 -25 10 7
4 -13 -10 -20 -66 -30 3 2
14 -9 -13 -22 -66 -31 2 1
14 -7 -11 -16 -64 -29 3 2
10 -12 -18 -21 -69 -32 0 -3
13 -11 -15 -18 -64 -29 3 1
13 -5 -10 -12 -60 -29 4 2
21 -3 -12 -18 -64 -32 0 -3
25 -5 -13 -20 -64 -31 1 -3
20 -6 -9 -14 -58 -28 3 1
14 -7 -10 -16 -61 -30 2 -1
13 -12 -14 -21 -65 -31 1 -2
16 -5 -12 -19 -62 -32 2 0
19 -5 -10 -18 -59 -33 0 -1
18 -14 -16 -24 -63 -36 -2 -6
22 -15 -16 -23 -65 -35 -3 -5
24 -8 -10 -15 -58 -35 -3 -4
26 -9 -12 -17 -61 -36 -5 -8
29 -9 -13 -20 -62 -35 -4 -8
23 -7 -6 -16 -56 -31 -1 -2
19 -11 -9 -21 -61 -35 -3 -7
27 -15 -16 -27 -67 -36 -5 -8
24 -11 -12 -19 -61 -34 -2 -4
22 -10 -10 -19 -61 -35 -4 -6
33 -14 -19 -31 -71 -42 -10 -13
41 -12 -19 -32 -70 -42 -11 -14
38 -4 -12 -25 -63 -40 -8 -10
33 -10 -14 -27 -66 -39 -8 -12
30 -11 -14 -27 -64 -37 -5 -11
29 -5 -6 -18 -53 -31 -1 -6
25 -10 -11 -19 -59 -37 -7 -12
31 -17 -18 -27 -66 -40 -11 -16
30 -9 -15 -23 -59 -38 -10 -15
29 -12 -14 -23 -59 -39 -12 -16
35 -16 -18 -29 -67 -42 -13 -18
38 -14 -15 -27 -63 -38 -11 -15
32 -9 -10 -22 -59 -38 -10 -14
32 -10 -10 -25 -59 -37 -10 -15
34 -12 -12 -27 -59 -36 -8 -15
30 -9 -9 -18 -52 -31 -5 -11
26 -11 -11 -18 -56 -34 -8 -14
27 -18 -16 -27 -61 -35 -9 -16
26 -15 -13 -28 -57 -36 -8 -14
25 -16 -13 -26 -59 -37 -9 -14
29 -18 -19 -31 -65 -42 -13 -18
34 -12 -14 -24 -59 -38 -10 -15
29 -10 -7 -17 -55 -38 -10 -16
29 -15 -9 -21 -58 -39 -13 -19
38 -12 -12 -28 -59 -42 -16 -22
35 -8 -5 -23 -53 -35 -12 -17
26 -13 -4 -22 -53 -35 -11 -16
32 -18 -12 -30 -58 -37 -14 -19
36 -15 -15 -33 -59 -40 -16 -22
33 -13 -15 -29 -59 -39 -16 -22
32 -19 -17 -34 -58 -39 -16 -24
32 -20 -16 -33 -56 -35 -14 -20
26 -13 -8 -22 -48 -32 -10 -17
23 -15 -9 -21 -48 -30 -11 -18
22 -16 -7 -19 -45 -29 -9 -17
20 -13 1 -11 -39 -26 -6 -12
18 -17 -3 -17 -45 -32 -11 -18
21 -24 -12 -29 -52 -36 -14 -21
22 -21 -8 -28 -49 -34 -12 -19
25 -16 -9 -28 -49 -35 -14 -20
30 -21 -15 -33 -55 -38 -18 -25
31 -21 -14 -30 -52 -35 -15 -22
29 -13 -6 -22 -44 -33 -13 -20
26 -15 -5 -23 -44 -31 -13 -19
28 -16 -6 -25 -44 -31 -14 -20
29 -13 0 -14 -35 -25 -13 -16
25 -15 -3 -15 -40 -29 -16 -21
27 -16 -8 -26 -46 -31 -17 -22
25 -15 -4 -21 -41 -28 -12 -19
21 -17 -4 -16 -41 -30 -14 -21
27 -21 -9 -23 -47 -35 -19 -27
26 -21 -7 -22 -44 -30 -16 -23
19 -14 2 -17 -38 -27 -13 -20
19 -17 1 -21 -36 -26 -13 -21
21 -22 -1 -19 -37 -26 -12 -21
26 -15 4 -9 -31 -22 -11 -18
20 -17 3 -12 -33 -24 -13 -22
16 -24 -1 -23 -37 -26 -15 -23
15 -19 6 -16 -32 -21 -11 -18
11 -19 6 -11 -31 -20 -13 -18
17 -22 -3 -21 -37 -26 -17 -25
24 -20 -1 -19 -34 -24 -15 -21
21 -14 5 -15 -29 -23 -14 -21
17 -14 6 -16 -28 -23 -14 -22
17 -14 5 -15 -27 -21 -12 -21
8 -18 10 -5 -21 -16 -10 -19
5 -22 6 -11 -24 -21 -15 -23
10 -25 2 -16 -27 -21 -15 -24
7 -20 8 -9 -22 -15 -10 -20
0 -17 11 -7 -17 -13 -9 -17
-3 -23 7 -13 -22 -17 -10 -20
-2 -21 11 -10 -20 -12 -8 -16
-10 -17 20 -2 -12 -9 -4 -14
-15 -21 20 0 -12 -10 -5 -15
-18 -20 23 4 -8 -7 -2 -13
-25 -19 31 12 0 -2 1 -9
-28 -21 28 6 -2 -5 0 -12
-26 -26 22 -3 -11 -7 -3 -13
-29 -23 25 -1 -7 -3 0 -12
-31 -20 26 3 -4 -2 -1 -10
-25 -23 20 -6 -11 -7 -5 -16
-13 -21 19 -4 -9 -5 -6 -15
-10 -14 24 2 -4 -4 -6 -16
-15 -16 26 3 -2 -2 -5 -15
-21 -19 27 3 0 0 -3 -14
-23 -15 33 8 6 4 -1 -10
-27 -22 28 3 0 -1 -5 -16
-25 -28 22 -4 -4 -3 -6 -18
-23 -22 26 0 -1 1 -3 -16
-28 -19 26 0 0 1 -4 -16
-24 -22 22 -5 -4 -2 -6 -19
-21 -20 26 1 2 3 -4 -15
-28 -15 34 10 7 5 -4 -15
-31 -18 33 7 6 3 -4 -17
-34 -19 36 6 9 6 -1 -14
-39 -14 42 13 14 11 1 -9
-42 -21 36 8 8 6 -4 -15
-33 -26 28 1 2 3 -5 -16
-28 -20 29 3 3 4 -5 -16
-30 -21 27 2 5 2 -6 -17
-26 -26 21 -6 -1 -1 -10 -22
-24 -25 23 1 4 0 -9 -18
-31 -20 32 12 7 2 -7 -17
-30 -20 35 14 7 4 -6 -17
-33 -22 36 10 8 5 -4 -16
-35 -19 40 7 10 7 -1 -12
-37 -20 36 1 6 5 -3 -15
-38 -26 31 -2 2 5 -2 -15
-36 -20 30 1 4 7 1 -12
-37 -22 29 4 4 8 0 -13
-36 -30 20 -2 -2 3 -4 -18
-28 -25 22 2 1 5 -2 -14
-30 -18 27 7 4 6 -2 -14
-28 -19 26 6 4 5 -4 -16
-27 -18 30 9 8 7 -1 -13
-30 -16 36 15 14 10 2 -8
-30 -15 34 11 7 6 -2 -12
-27 -15 33 5 6 7 -1 -11
-31 -7 32 5 6 6 -1 -10
-28 -7 32 6 4 5 -4 -10
-23 -11 25 -1 -2 1 -7 -16
-23 -10 31 6 6 5 -1 -9
-31 -5 40 15 12 10 2 -5
-31 -7 40 13 10 10 2 -6
-25 -3 40 12 12 9 3 -6
-24 1 45 18 19 12 3 -4
-30 -6 45 18 15 11 3 -7
-24 -12 43 15 12 11 3 -7
-22 -5 46 18 14 12 5 -6
-20 -6 43 15 12 9 3 -7
-17 -12 38 6 7 7 1 -11
-14 -9 36 3 6 7 1 -9
-16 -4 42 13 13 10 3 -6
-14 -5 35 17 14 12 4 -6
-22 -11 33 18 14 13 7 -4
-26 -7 33 21 16 15 8 -3
-23 -13 27 14 9 10 5 -7
-17 -16 21 5 6 8 5 -7
-15 -11 21 7 7 8 4 -6
-19 -10 22 10 9 7 4 -5
-14 -12 13 0 3 0 -2 -13
-6 -9 13 -1 2 0 -3 -10
-9 -3 17 4 1 1 -3 -10
-10 -4 13 -2 -3 0 -3 -10
-10 -7 11 -3 -2 0 -2 -8
-10 -5 15 6 2 3 2 -4
-13 -7 11 4 0 2 1 -6
-8 -13 5 -5 -6 0 1 -7
3 -6 5 -8 -8 -2 0 -7
1 -6 3 -8 -8 -2 0 -6
3 -9 -3 -13 -12 -6 -3 -10
9 -3 1 -5 -6 -2 2 -4
4 1 7 2 -4 -1 2 -4
2 -4 2 -5 -10 -6 -2 -8
3 -7 2 -9 -11 -6 -2 -9
-3 -5 7 -3 -6 -2 0 -5
-4 -8 0 -4 -11 -8 -3 -9
-2 -16 -4 -10 -14 -8 -2 -8
0 -12 -3 -11 -13 -7 -2 -8
3 -9 -3 -11 -14 -8 -2 -7
5 -15 -10 -18 -21 -13 -4 -12
6 -12 -8 -16 -19 -12 -4 -10
-1 -8 1 -8 -14 -11 -4 -10
-8 -12 2 -7 -14 -10 -3 -10
-5 -9 2 -5 -14 -9 -2 -10
-13 -7 9 2 -8 -4 0 -5
-17 -13 4 -5 -15 -11 -5 -11
-10 -20 -3 -16 -23 -16 -7 -15
-10 -20 -2 -14 -23 -16 -9 -16
-9 -21 -4 -15 -25 -20 -12 -18
0 -20 -10 -24 -33 -24 -16 -23
6 -19 -9 -22 -30 -21 -14 -19
-5 -15 3 -11 -19 -15 -8 -14
-17 -18 6 -9 -19 -14 -6 -12
-25 -19 8 -2 -15 -9 -2 -7
-27 -14 12 5 -10 -9 -1 -5
-26 -19 6 -4 -19 -16 -8 -14
-19 -28 0 -12 -22 -19 -10 -15
-16 -24 2 -11 -21 -18 -8 -14
-11 -23 -1 -15 -27 -23 -15 -18
11 -25 -13 -26 -39 -30 -22 -26
26 -19 -12 -24 -35 -29 -21 -23
12 -13 -5 -14 -30 -26 -18 -21
7 -15 -3 -15 -29 -25 -18 -20
2 -17 -2 -16 -29 -23 -15 -18
-8 -16 8 -4 -20 -16 -9 -10
-13 -18 6 -1 -24 -18 -12 -14
-8 -24 2 -7 -27 -21 -12 -15
-6 -20 2 -5 -25 -21 -12 -14
-2 -20 2 -7 -28 -26 -16 -18
5 -24 -6 -20 -37 -32 -23 -24
8 -21 -3 -20 -31 -28 -18 -20
-1 -18 4 -10 -23 -22 -13 -16
-7 -18 5 -6 -27 -19 -11 -16
-14 -20 4 -2 -24 -16 -7 -12
-15 -15 12 4 -14 -12 -3 -7
-14 -16 9 0 -21 -15 -7 -12
-9 -22 5 -6 -23 -16 -6 -11
-8 -20 4 -6 -20 -16 -6 -10
-9 -20 3 -7 -25 -20 -9 -13
-8 -24 -5 -14 -31 -23 -13 -19
-5 -21 -1 -10 -26 -20 -9 -14
-10 -15 6 -2 -21 -17 -8 -12
-14 -18 7 -2 -21 -18 -9 -12
-14 -18 8 0 -20 -15 -6 -11
-18 -14 15 7 -13 -12 -3 -6
-14 -16 10 -1 -20 -16 -7 -11
-1 -20 2 -9 -24 -20 -10 -14
2 -19 -2 -9 -26 -22 -10 -16
3 -16 1 -8 -25 -21 -9 -14
2 -23 -6 -20 -32 -25 -12 -19
-6 -19 -2 -14 -24 -20 -8 -14
-9 -14 7 -4 -18 -16 -5 -11
-9 -19 8 -2 -18 -19 -7 -13
-10 -20 10 -1 -17 -18 -8 -15
-18 -16 22 11 -6 -13 -6 -11
-20 -19 27 15 -4 -14 -7 -13
-15 -21 28 22 4 -9 -5 -11
-15 -12 31 35 18 1 1 -7
-17 -4 31 39 29 14 12 2
-9 -3 23 37 34 24 20 7
0 8 22 43 49 39 31 17
4 15 22 54 64 54 42 24
13 14 19 65 76 67 52 31
28 22 21 78 95 88 67 40
35 39 36 108 130 124 95 64
40 45 37 128 156 152 119 79
65 55 31 136 179 183 144 96
82 70 25 147 203 213 170 113
96 84 14 150 221 238 191 125
117 92 -17 131 221 251 206 135
132 103 -46 117 221 257 215 146
141 114 -74 105 209 245 214 145
156 119 -109 87 190 230 208 142
162 110 -131 77 171 206 189 127
152 87 -131 52 130 154 143 91
130 55 -137 -19 63 85 87 46
114 35 -152 -102 -9 31 52 26
94 32 -160 -165 -67 -14 30 16
76 29 -167 -222 -131 -59 8 6
59 16 -178 -290 -211 -112 -22 -11
38 13 -171 -316 -244 -140 -37 -14
7 15 -150 -299 -239 -145 -42 -14
-14 9 -136 -275 -233 -149 -51 -19
-28 5 -120 -255 -220 -149 -58 -23
-38 6 -101 -228 -199 -141 -60 -23
-42 -1 -100 -216 -188 -137 -65 -31
-32 -8 -110 -207 -180 -131 -65 -34
-29 -9 -113 -192 -164 -124 -63 -33
-27 -12 -114 -181 -156 -119 -62 -36
-21 -20 -114 -177 -151 -115 -62 -40
-17 -19 -97 -153 -127 -99 -52 -31
-24 -14 -74 -118 -103 -86 -44 -27
-32 -20 -61 -99 -87 -76 -39 -26
-31 -23 -53 -88 -77 -68 -34 -23
-34 -17 -38 -68 -57 -54 -25 -14
-36 -18 -36 -61 -53 -49 -23 -16
-27 -22 -33 -58 -46 -42 -20 -13
-19 -17 -25 -48 -35 -36 -17 -9
-16 -15 -19 -40 -29 -33 -16 -11
-9 -19 -21 -41 -33 -35 -21 -17
-4 -13 -12 -29 -22 -29 -16 -11
-10 -7 -2 -16 -13 -26 -16 -10
-12 -10 1 -13 -10 -23 -14 -10
-13 -11 3 -12 -6 -20 -11 -7
-17 -5 12 0 5 -12 -5 -2
-23 -11 9 -2 2 -15 -6 -6
-15 -16 3 -12 -2 -18 -9 -9
-11 -13 3 -14 -6 -19 -11 -10
-10 -14 2 -14 -9 -21 -15 -13
-9 -18 0 -19 -9 -21 -14 -14
-9 -14 5 -10 -2 -16 -9 -10
-15 -9 13 1 3 -15 -10 -7
-15 -14 12 1 3 -15 -10 -8
-14 -12 9 0 4 -14 -10 -10
-20 -8 18 12 14 -5 -3 -1
-23 -12 17 7 11 -7 -3 -3
-18 -19 8 -3 5 -10 -5 -6
-18 -15 10 -3 7 -9 -4 -4
-18 -14 10 -1 6 -8 -5 -6
-18 -19 4 -10 -1 -14 -9 -10
-15 -15 9 -4 6 -10 -5 -6
-22 -10 15 7 13 -11 -6 -6
-19 -12 14 7 12 -9 -7 -5
-15 -13 12 5 12 -8 -6 -6
-20 -12 17 11 17 -4 -4 -1
-13 -11 11 3 11 -9 -9 -6
-6 -15 5 -6 7 -10 -9 -7
-7 -11 5 -5 7 -11 -8 -6
-8 -12 8 -2 8 -9 -7 -5
-7 -20 3 -12 2 -16 -12 -11
-7 -15 9 -6 9 -10 -6 -5
-18 -11 14 3 14 -8 -6 -3
-24 -15 12 3 15 -7 -5 -4
-24 -16 12 2 22 -3 -2 -3
-30 -9 18 16 28 4 4 5
-33 -11 16 15 23 2 3 3
-21 -17 8 2 18 -3 0 -2
-9 -15 4 -4 13 -7 -3 -4
-3 -13 2 -5 9 -9 -7 -9
4 -16 -5 -15 2 -16 -13 -16
-1 -13 2 -7 10 -11 -9 -11
-11 -7 10 4 17 -9 -8 -10
-12 -10 9 3 15 -8 -9 -12
-9 -13 7 3 16 -7 -9 -11
-11 -9 16 15 26 1 -4 -4
-14 -13 11 11 20 -5 -8 -11
-7 -18 6 1 15 -8 -10 -14
-4 -13 8 3 16 -7 -12 -12
-3 -13 7 3 14 -10 -13 -15
6 -14 3 -5 9 -13 -16 -18
-2 -12 12 3 18 -5 -9 -11
-16 -7 20 14 27 0 -5 -8
-19 -10 18 14 29 3 -2 -7
-18 -13 16 14 28 4 -3 -7
-16 -8 21 22 34 8 -1 -3
-18 -6 15 17 30 4 -3 -8
-15 -13 11 9 28 6 -3 -7
-11 -9 14 14 29 7 -1 -5
-12 -7 12 13 30 3 -6 -9
-5 -10 7 7 21 -1 -8 -13
0 -5 16 15 30 6 -3 -6
-8 -1 21 22 32 6 -4 -6
-8 -4 21 20 32 6 -2 -7
-4 -4 22 22 35 9 -1 -6
-8 0 27 33 42 14 3 -1
-5 -4 23 31 38 11 1 -4
1 -6 19 25 35 12 2 -4
-4 -5 20 23 37 13 2 -3
-9 -6 21 21 38 14 3 -2
-3 -8 15 13 33 10 0 -7
0 1 21 28 42 18 4 -1
-9 6 28 44 50 22 8 2
-14 2 30 45 50 23 11 2
-13 1 31 45 51 26 11 4
-11 5 36 54 61 31 16 8
-9 2 28 49 55 27 11 2
5 0 21 41 51 25 10 1
9 4 21 41 52 25 9 0
9 8 23 43 53 27 10 0
8 1 19 39 49 27 10 -2
4 4 25 46 56 32 13 4
-5 13 30 56 63 35 17 6
-11 7 33 61 69 39 21 9
-8 6 33 66 73 42 23 11
-6 14 40 79 83 48 28 17
-10 10 35 74 77 44 24 12
0 7 30 63 72 43 22 11
10 9 31 62 73 42 21 11
9 11 31 64 75 42 20 10
13 7 24 59 70 39 18 7
15 12 30 68 77 45 22 12
10 17 35 81 84 49 25 13
9 16 35 84 89 51 27 15
13 18 35 88 92 56 29 17
7 24 44 103 102 62 34 23
2 20 40 100 97 59 34 20
11 18 36 94 99 61 35 23
18 24 39 96 103 66 39 25
22 25 36 94 99 62 34 22
33 21 25 87 91 56 28 14
36 23 32 95 98 62 32 20
27 26 38 105 106 63 34 21
27 25 39 105 106 67 37 23
29 27 38 109 109 69 40 26
26 33 47 121 118 76 45 31
28 32 42 119 116 74 44 29
35 29 37 111 114 76 44 29
32 32 40 113 117 78 45 30
27 33 42 117 119 76 44 30
31 26 34 108 111 70 40 23
33 35 39 113 117 76 46 30
27 40 45 121 120 80 47 31
25 34 43 124 122 80 48 30
29 36 44 129 123 80 48 30
26 39 47 134 128 82 49 33
26 32 41 123 121 76 44 28
35 29 36 114 115 76 45 29
35 32 38 117 115 76 46 30
36 33 39 117 115 76 46 30
39 27 32 104 106 70 42 25
38 32 36 107 108 73 44 28
32 39 43 115 112 73 45 29
27 34 41 115 110 72 44 27
23 33 41 114 113 72 43 28
15 36 48 120 120 77 48 33
11 29 42 114 110 71 44 27
17 26 37 107 105 69 41 27
20 30 37 105 103 66 39 26
18 31 37 102 100 64 36 22
20 26 30 90 89 57 31 18
24 28 36 88 93 57 33 21
24 29 38 86 88 52 29 16
27 28 35 82 84 51 27 14
28 24 32 77 82 48 24 11
20 26 38 83 87 52 27 15
17 23 31 75 79 45 24 10
22 19 22 65 73 42 21 9
22 17 23 60 72 39 19 7
15 18 24 52 63 34 15 4
19 13 19 44 57 29 12 1
18 17 27 49 61 31 14 5
9 18 28 52 57 29 10 1
6 13 31 51 58 27 9 0
3 11 32 50 56 27 7 1
-2 13 38 52 60 29 10 4
-1 11 29 37 53 21 3 -4
4 6 20 24 44 17 -1 -7
7 11 21 23 38 16 -1 -6
2 6 22 23 36 13 -3 -9
-1 -1 14 12 29 9 -8 -13
-2 2 24 16 35 13 -2 -6
-9 7 27 20 34 11 -4 -9
-11 1 26 17 31 10 -6 -12
-9 1 25 18 31 11 -8 -11
-14 3 30 27 38 14 -5 -8
-14 -4 25 21 30 7 -9 -14
-12 -12 20 12 25 5 -10 -14
-11 -7 20 11 25 4 -10 -13
-10 -5 20 9 23 4 -10 -16
-11 -11 14 -2 15 -2 -16 -20
-20 -7 22 3 23 5 -10 -13
-24 -4 25 8 24 3 -10 -15
-20 -9 23 8 21 3 -12 -17
-13 -5 22 7 20 3 -13 -17
-19 -2 30 12 26 6 -10 -13
-22 -8 23 7 20 0 -14 -18
-16 -13 18 2 17 1 -14 -17
-16 -8 19 3 17 -1 -15 -17
-14 -9 19 0 14 -3 -18 -19
-7 -13 12 -10 5 -9 -24 -27
-11 -10 17 -6 10 -6 -22 -23
-20 -5 22 3 16 -6 -21 -23
-26 -11 24 7 14 -5 -20 -24
-26 -13 25 9 15 -4 -19 -23
-32 -7 35 22 26 3 -12 -15
-35 -13 28 15 19 -2 -16 -22
-32 -12 21 1 13 -3 -17 -21
-26 -9 23 -3 14 -2 -16 -19
-21 -14 20 -3 10 -5 -19 -25
-6 -18 7 -14 -2 -12 -28 -33
-5 -11 11 -8 5 -10 -25 -28
-14 -7 18 2 10 -8 -23 -27
-17 -10 19 3 9 -7 -21 -27
-21 -12 19 3 11 -5 -22 -26
-24 -8 25 11 17 -2 -18 -23
-20 -13 20 5 10 -6 -22 -28
-14 -18 16 -1 9 -5 -22 -26
-14 -12 20 1 11 -5 -21 -25
-17 -10 23 1 10 -6 -21 -26
-16 -16 17 -6 5 -8 -23 -28
-21 -12 23 1 12 -2 -17 -20
-31 -10 30 9 14 0 -16 -20
-27 -12 29 11 13 0 -16 -21
-27 -12 29 13 17 1 -17 -19
-30 -6 34 18 22 4 -15 -17
-27 -10 27 8 11 -2 -21 -24
-18 -16 23 0 8 -2 -20 -21
-17 -9 24 1 13 1 -16 -18
-16 -9 22 0 8 0 -17 -21
-11 -12 14 -7 3 -4 -22 -28
-11 -9 22 4 12 1 -17 -19
-17 -4 28 13 14 1 -17 -20
-18 -8 25 11 10 -1 -20 -23
-14 -7 26 11 12 2 -17 -20
-22 -6 35 19 24 9 -10 -14
-29 -11 29 15 18 6 -13 -17
-24 -12 23 7 15 7 -14 -16
-24 -10 25 4 20 7 -12 -16
-26 -9 27 8 18 8 -12 -15
-19 -13 21 3 12 4 -15 -20
-18 -7 26 10 18 9 -11 -15
-17 -2 30 15 18 7 -13 -15
-10 -4 25 10 14 4 -17 -19
-8 -3 26 11 16 6 -16 -17
-11 0 31 18 20 8 -13 -15
-10 -8 22 11 12 2 -17 -21
-7 -11 18 5 10 2 -16 -18
-12 -8 19 5 12 2 -14 -17
-13 -9 20 4 10 2 -14 -18
-8 -13 15 -3 6 0 -17 -21
-14 -9 24 5 17 7 -11 -13
-21 -2 31 15 23 9 -9 -11
-19 -4 30 16 20 8 -10 -13
-14 -6 26 13 19 6 -13 -15
-13 0 28 18 26 8 -10 -13
-11 -2 20 5 15 0 -17 -21
-3 -10 16 -2 11 1 -17 -18
-2 -6 18 3 16 3 -14 -16
-6 -4 18 7 15 1 -15 -16
-6 -11 14 0 9 -2 -19 -20
-10 -5 20 6 15 3 -14 -16
-20 -1 25 13 19 4 -13 -15
-19 -5 26 11 18 5 -13 -15
-17 -4 26 12 21 7 -12 -14
-20 -1 32 23 28 13 -6 -8
-13 -2 26 15 21 8 -11 -14
-6 -8 20 7 18 6 -13 -14
-7 -6 18 5 18 4 -13 -15
-10 -6 18 4 13 3 -14 -16
-9 -13 12 -8 7 -3 -18 -20
-4 -3 17 -2 12 -1 -17 -16
-4 1 20 7 15 -1 -17 -17
-5 -2 20 8 12 0 -17 -17
-6 0 20 6 14 3 -16 -15
-18 2 26 9 19 6 -11 -11
-16 -5 20 5 16 4 -14 -15
-8 -8 14 3 14 3 -16 -15
-4 -5 16 5 16 3 -16 -16
-1 -4 17 6 11 0 -18 -16
1 -8 9 -6 4 -4 -24 -23
-1 0 17 0 10 -1 -21 -17
-7 4 24 6 15 2 -17 -14
-10 -4 23 2 15 2 -17 -15
-10 -6 20 0 15 3 -17 -15
-12 -3 25 9 19 5 -13 -12
-11 -7 17 4 13 1 -17 -17
-1 -8 15 -2 14 2 -16 -15
-5 -8 15 -4 11 2 -16 -16
-6 -8 15 -8 10 -1 -18 -18
-1 -12 8 -15 2 -5 -22 -21
-4 -7 15 -4 9 1 -18 -15
-12 1 20 3 13 4 -16 -15
-22 -5 23 5 17 7 -13 -13
-23 -9 22 3 19 8 -14 -14
-21 -5 26 12 24 10 -10 -9
-17 -7 19 4 13 5 -14 -14
-6 -11 13 -6 8 3 -16 -16
2 -5 13 -5 8 0 -18 -17
3 -4 11 -6 7 -2 -19 -19
8 -8 5 -17 0 -6 -24 -23
2 -4 14 -7 8 1 -19 -16
-9 -1 19 2 11 1 -19 -17
-10 -3 18 2 10 2 -19 -16
-13 -6 19 4 13 4 -18 -15
-23 -3 26 12 19 8 -13 -9
-25 -8 22 8 14 5 -14 -12
-18 -11 15 -1 10 5 -15 -12
-11 -7 16 -1 12 4 -15 -12
-1 -5 12 -5 5 -1 -20 -16
10 -9 2 -18 -4 -8 -27 -24
9 -3 9 -10 3 -3 -23 -17
2 0 14 -2 6 -3 -21 -18
-2 -3 12 -1 4 -2 -23 -20
-4 -3 13 0 8 2 -21 -17
-14 -1 21 8 15 5 -17 -12
-14 -6 14 -3 6 0 -20 -18
-3 -10 9 -11 4 0 -20 -17
-7 -8 8 -7 7 3 -18 -14
-8 -7 6 -6 7 2 -18 -15
-7 -14 0 -15 0 -3 -23 -19
-6 -4 8 -5 8 3 -19 -13
-5 2 12 3 10 1 -20 -14
-1 1 10 3 7 -2 -23 -17
-4 -2 12 3 6 -1 -23 -17
-11 2 19 8 10 2 -18 -13
-17 -7 13 -2 6 1 -18 -16
-13 -11 11 -9 7 5 -15 -13
-12 -9 11 -6 8 4 -17 -13
-13 -8 8 -5 4 2 -19 -17
-3 -13 -1 -14 -4 -5 -23 -22
2 -4 4 -7 1 -4 -22 -17
-3 1 9 3 3 -3 -23 -19
-6 -6 11 4 3 -1 -20 -17
-8 -7 12 -1 3 1 -19 -17
-11 0 17 5 8 4 -17 -13
-10 -5 9 -2 2 0 -22 -19
-4 -8 4 -8 0 0 -20 -18
-6 -3 6 -4 4 4 -17 -14
-9 -1 6 -2 3 2 -18 -16
-6 -11 -2 -11 -2 -3 -22 -21
-3 -3 6 -6 4 3 -18 -13
-6 0 10 -1 4 2 -19 -14
-2 -4 7 -3 1 2 -20 -16
0 -5 6 -1 2 1 -21 -18
-7 0 14 11 10 4 -16 -13
-8 -5 7 4 1 -2 -23 -19
0 -9 3 -4 -2 -1 -23 -19
3 -5 4 -4 -1 -1 -23 -18
4 -4 4 -5 -3 -3 -25 -19
3 -10 -2 -11 -8 -7 -28 -23
-1 -4 6 0 1 -1 -21 -14
-10 -2 10 3 2 -2 -21 -16
-9 -6 9 -3 -2 -2 -21 -18
-4 -5 7 -2 -3 1 -19 -16
-8 -1 13 8 5 7 -14 -10
-8 -6 8 -1 -2 4 -16 -15
-3 -11 3 -8 -4 5 -17 -15
-3 -6 3 -5 2 5 -16 -15
-5 -5 1 0 2 3 -16 -15
-3 -11 -9 -8 -9 -2 -21 -20
-3 -5 1 -1 -1 4 -16 -13
-9 -3 6 1 0 3 -16 -14
-7 -6 4 -1 -2 2 -17 -16
-4 -4 4 3 -1 4 -16 -14
-9 -2 11 13 7 8 -13 -10
-9 -7 5 5 -1 2 -16 -15
-4 -9 1 -1 -3 2 -16 -13
-5 -6 4 3 0 3 -15 -12
-6 -5 3 3 1 2 -16 -12
0 -9 -3 -5 -7 -2 -18 -17
-7 -4 5 0 -1 5 -13 -9
-12 -1 9 3 0 5 -14 -10
-9 -4 7 4 -1 4 -14 -12
-4 -4 4 2 1 4 -16 -13
-5 -2 9 10 4 7 -14 -9
0 -8 0 0 -6 -1 -17 -16
8 -6 -5 -7 -8 0 -17 -14
4 -4 -1 -4 -7 2 -17 -14
-4 -8 -1 -1 -5 2 -16 -12
4 -7 -8 -9 -12 -2 -19 -16
4 1 -1 -1 -4 3 -15 -11
-4 -1 4 6 -1 3 -14 -11
-3 -5 4 3 -2 3 -15 -12
-5 -9 2 2 -5 3 -16 -11
-4 0 7 9 3 6 -13 -8
0 -6 -1 0 -5 1 -17 -15
3 -9 -6 -6 -10 2 -15 -12
1 -7 -2 -2 -4 4 -12 -9
-3 -6 -1 -4 -4 6 -11 -7
3 -10 -7 -12 -12 3 -14 -10
2 -2 1 -5 -4 8 -10 -5
-7 -1 6 3 -2 7 -11 -6
-4 -1 3 2 -5 8 -12 -7
-3 -6 1 2 -5 7 -13 -8
-2 -1 6 9 1 9 -9 -4
-1 -8 0 3 -7 6 -13 -9
1 -12 -3 -3 -8 8 -12 -6
-2 -8 -2 -4 -8 8 -11 -5
-3 -2 -1 -7 -10 7 -13 -6
2 -8 -9 -16 -17 1 -16 -11
1 -4 0 -6 -5 7 -12 -4
1 0 3 0 -5 6 -11 -5
12 -1 -1 -3 -11 4 -16 -9
11 -2 0 -1 -11 5 -17 -10
-1 1 9 12 -1 10 -12 -3
1 -3 1 3 -9 6 -14 -9
8 -5 -3 -10 -11 7 -13 -6
7 -4 -3 -11 -12 7 -14 -6
6 -1 -3 -6 -12 5 -14 -7
8 -9 -9 -13 -17 3 -15 -9
7 1 0 -3 -9 9 -10 0
5 12 8 7 -5 10 -10 0
1 7 10 7 -4 12 -10 0
-3 3 12 7 -1 15 -7 2
-6 10 20 17 5 17 -3 8
0 3 9 11 -5 11 -10 -1
6 3 5 0 -6 11 -9 1
9 10 8 1 -4 11 -8 2
8 12 10 3 -5 11 -8 2
10 5 7 -1 -8 11 -9 1
6 16 17 7 1 17 -3 8
0 18 22 9 1 16 -4 7
0 13 24 9 1 19 -2 8
2 9 25 13 5 22 2 10
3 15 30 25 11 23 3 13
6 6 22 17 3 17 -4 6
12 1 17 10 2 19 -3 8
14 6 16 11 3 18 -3 9
15 9 10 10 1 17 -4 7
21 6 -1 1 -5 15 -8 3
16 10 5 8 3 19 -3 10
3 7 6 12 1 15 -5 8
1 3 5 11 0 16 -3 8
4 5 4 7 2 16 -3 10
-3 9 12 14 6 20 3 15
-8 5 6 8 0 18 1 12
-5 -1 -2 1 -6 18 0 12
1 4 -4 1 -4 17 -2 12
7 8 -6 -4 -8 13 -5 9
14 4 -16 -17 -19 8 -10 4
14 11 -10 -10 -12 13 -4 9
6 11 -7 0 -8 13 -4 10
6 6 -9 1 -10 13 -6 8
11 9 -7 3 -8 15 -3 11
3 14 0 9 -3 19 3 16
4 9 -6 -2 -9 15 1 14
15 8 -11 -11 -12 17 1 14
17 14 -12 -9 -10 16 1 14
12 14 -11 -5 -11 16 2 15
11 5 -19 -14 -20 11 -1 11
9 6 -12 -9 -15 14 1 15
7 6 -10 -8 -17 11 -3 10
11 5 -13 -9 -17 11 -3 8
17 10 -13 -8 -17 11 -2 10
14 10 -7 0 -14 14 0 13
13 -1 -16 -9 -23 7 -6 6
17 4 -18 -15 -24 7 -4 8
11 6 -14 -13 -23 8 -4 10
6 3 -12 -12 -23 7 -5 9
11 0 -15 -16 -27 5 -8 6
12 6 -6 -8 -19 9 -5 12
3 7 0 -4 -17 8 -6 10
-1 0 -2 -10 -18 8 -7 8
1 -3 -5 -13 -21 6 -7 7
-3 3 2 1 -15 13 -3 12
-6 -7 -4 -3 -21 9 -5 7
0 -9 -10 -11 -24 9 -5 8
2 -3 -7 -11 -22 11 -4 11
0 -6 -9 -9 -24 8 -7 7
6 -10 -15 -16 -29 4 -9 4
8 -2 -6 -7 -22 11 -4 11
1 0 0 -1 -20 10 -5 10
5 -1 -3 -3 -23 10 -5 9
5 2 -4 -4 -23 11 -5 9
-4 7 6 7 -16 16 0 15
-10 -3 0 1 -22 12 -4 10
-7 -8 -6 -6 -25 11 -5 10
-5 -6 -4 -4 -25 12 -6 13
-2 -1 -4 -9 -29 11 -7 9
7 -10 -10 -19 -35 7 -8 8
7 -2 -1 -10 -25 14 -1 16
-1 0 2 -2 -23 15 -3 14
3 0 0 0 -23 15 -2 12
6 0 0 3 -22 15 -3 13
-3 3 8 11 -15 20 1 18
-4 -4 2 3 -24 14 -3 11
1 -12 -3 -4 -28 12 -4 12
0 -11 -2 -2 -24 12 -5 13
1 -8 0 0 -27 14 -5 14
7 -14 -8 -11 -36 8 -10 8
3 -6 1 -4 -26 15 -5 16
-6 -3 6 2 -25 16 -4 16
-6 -7 5 1 -27 15 -4 15
3 -3 5 3 -23 16 -2 17
-7 -3 12 12 -20 21 1 21
-7 -9 4 3 -29 16 -3 13
1 -9 0 -3 -30 17 -4 14
-1 -7 1 -2 -28 18 -3 16
1 -7 -2 -3 -31 16 -5 15
9 -11 -10 -14 -37 12 -9 10
9 -5 -2 -7 -29 19 -3 19
0 1 5 5 -24 20 -2 19
-5 -3 3 7 -26 19 -3 17
-7 -6 6 9 -23 21 -1 19
-11 0 15 17 -16 27 4 24
-9 -8 7 2 -25 21 -1 16
1 -9 3 -3 -26 21 -1 18
1 -4 5 2 -24 23 0 19
-1 -4 6 5 -24 22 -2 18
-1 -9 4 -1 -28 18 -6 15
-7 -3 17 8 -17 22 -2 22
-14 0 25 16 -14 22 -2 19
-11 -3 29 22 -9 23 -2 18
-9 -3 34 33 1 30 0 20
-1 6 42 50 18 41 9 28
5 4 31 50 21 47 13 29
10 8 27 52 31 63 25 40
13 20 28 60 46 80 39 51
17 23 25 65 61 96 52 58
30 24 19 67 70 110 63 63
34 41 35 95 101 141 85 83
33 55 46 126 134 174 112 99
51 65 46 146 161 205 134 114
80 76 39 157 184 232 157 129
94 90 33 175 209 259 179 144
111 92 12 170 215 275 195 151
136 104 -23 144 211 286 209 163
155 123 -54 129 204 285 216 168
169 127 -86 111 187 272 214 168
179 120 -127 83 161 250 204 162
180 117 -138 71 139 223 184 149
161 90 -139 30 86 161 131 105
148 63 -148 -45 18 94 79 65
130 52 -159 -119 -45 48 52 53
103 52 -157 -167 -90 12 34 47
84 38 -174 -230 -160 -38 7 30
72 23 -179 -285 -227 -82 -16 19
52 23 -171 -311 -258 -108 -31 14
34 24 -156 -303 -257 -114 -40 10
17 12 -151 -297 -255 -121 -52 1
-3 16 -126 -266 -229 -111 -52 5
-21 16 -109 -235 -205 -100 -50 4
-23 9 -111 -214 -195 -93 -50 0
-23 2 -113 -192 -176 -84 -48 2
-26 3 -109 -172 -159 -76 -45 0
-25 -13 -111 -172 -161 -77 -48 -8
-16 -18 -101 -164 -147 -66 -44 -7
-13 -15 -80 -138 -125 -52 -37 -2
-11 -15 -64 -112 -106 -40 -31 0
-5 -19 -64 -107 -101 -38 -33 -3
-6 -11 -48 -86 -81 -24 -23 6
-11 -5 -37 -69 -67 -16 -19 8
-6 -3 -28 -60 -58 -8 -15 12
-2 -3 -19 -49 -47 -1 -10 14
-6 3 -2 -27 -32 9 -3 21
-6 2 -3 -30 -36 5 -8 14
-4 -4 -5 -33 -37 5 -9 14
-1 -1 2 -26 -29 8 -7 16
1 -2 5 -20 -26 9 -9 13
7 -6 -2 -26 -32 6 -12 9
5 3 11 -16 -18 14 -4 18
-3 6 17 -11 -14 16 -1 18
-3 5 15 -14 -15 16 0 18
-1 1 17 -7 -12 20 4 22
-8 5 27 6 -5 26 8 26
-14 -4 20 -5 -14 18 1 17
-15 -6 18 -10 -14 18 2 19
-13 1 21 -8 -12 20 3 21
-4 2 17 -9 -17 17 0 16
9 -5 6 -19 -24 12 -4 11
8 3 15 -6 -12 19 2 19
-2 5 21 4 -5 21 3 18
0 1 21 4 -5 22 3 18
1 1 24 3 -4 25 5 23
3 8 28 6 -3 24 4 23
10 3 18 -7 -19 14 -4 13
18 2 15 -8 -17 15 -4 15
14 9 16 -6 -13 15 -3 16
4 9 17 -9 -11 19 0 17
4 5 8 -26 -19 15 -3 13
1 14 15 -15 -7 21 2 21
-6 20 16 -4 -5 21 3 19
-5 20 12 -4 -1 21 4 18
-4 19 12 -3 -1 22 5 21
-10 23 18 4 1 22 5 21
-6 19 9 -7 -9 13 -2 13
6 20 4 -13 -14 11 -4 15
8 26 3 -15 -15 7 -8 11
5 26 1 -21 -17 5 -9 7
5 20 -4 -33 -21 4 -10 10
4 30 3 -21 -8 12 -3 16
-2 31 5 -12 -6 12 -2 12
-5 28 3 -13 -7 11 -2 12
-4 27 3 -15 -8 11 -2 12
-6 34 11 -5 -3 14 0 15
-3 30 0 -17 -15 5 -9 6
4 27 -2 -18 -13 6 -8 9
4 30 2 -14 -11 6 -8 11
3 29 0 -18 -13 3 -10 6
10 29 -7 -29 -19 -2 -14 3
7 31 1 -16 -8 5 -8 10
5 34 3 -9 -7 4 -9 7
6 33 0 -10 -10 3 -11 5
8 29 1 -7 -9 4 -9 8
-5 33 11 3 0 10 -3 12
-11 28 7 -6 -7 5 -6 9
-4 26 5 -9 -9 7 -6 11
-3 30 6 -6 -8 5 -7 12
-1 31 5 -4 -8 4 -8 9
9 26 -3 -12 -13 -1 -12 5
13 36 5 -1 -4 5 -8 11
6 36 8 4 -3 5 -6 10
1 33 10 3 -1 8 -4 12
5 36 11 3 -1 10 -3 15
-3 40 14 12 2 11 -2 15
0 32 6 2 -7 4 -7 9
7 28 5 -3 -5 5 -5 11
9 33 7 1 -2 7 -5 13
9 33 7 4 -4 7 -4 12
15 27 -1 -1 -8 3 -7 12
17 38 9 11 3 11 -1 17
9 40 16 22 8 14 0 17
6 38 15 22 9 15 0 16
7 37 17 21 11 16 0 17
-2 40 21 27 12 18 1 18
2 34 13 20 5 15 -1 13
11 37 12 17 6 18 2 17
8 38 13 19 9 20 3 19
4 33 13 23 10 22 5 19
13 31 7 21 9 21 5 18
14 41 16 35 21 30 11 25
7 42 21 46 23 31 12 25
4 39 22 50 26 30 13 25
3 40 23 54 26 32 14 26
4 45 31 61 32 33 17 29
4 37 23 47 22 28 12 22
11 34 19 40 20 30 13 24
15 35 19 42 21 30 12 24
14 33 20 43 22 31 12 24
23 33 12 40 20 32 12 22
22 44 22 58 34 39 18 31
14 46 25 68 39 44 19 32
15 47 26 73 41 46 23 34
16 46 24 73 43 46 23 35
11 48 35 86 51 50 26 39
21 42 24 78 42 45 21 32
33 40 21 75 42 46 21 32
34 48 23 82 45 44 21 33
35 47 25 83 46 44 19 31
40 43 20 75 43 46 22 31
35 54 32 85 59 57 31 42
21 54 33 90 60 60 32 41
24 51 29 97 63 63 33 42
29 51 29 104 67 66 36 44
27 58 37 114 72 69 38 48
31 50 30 103 64 64 34 42
40 50 27 99 63 64 35 43
40 57 28 102 65 64 35 43
38 58 28 103 66 65 35 43
38 50 20 98 65 66 36 42
36 61 32 111 80 75 44 51
32 62 34 117 80 74 43 50
36 57 30 118 78 74 43 48
41 61 29 120 79 77 45 50
34 67 40 131 87 82 50 54
31 57 35 124 82 79 49 52
39 56 32 120 83 81 49 52
43 59 32 120 83 77 47 50
47 60 28 116 78 74 42 47
53 57 16 105 68 69 38 41
49 64 27 118 80 79 45 51
44 68 31 125 83 79 47 52
44 61 27 123 79 77 45 49
44 63 27 123 80 78 47 50
39 68 37 133 89 82 51 54
34 54 28 122 78 75 47 49
45 57 25 115 75 74 46 49
45 59 28 118 77 73 47 50
45 56 27 117 75 69 44 47
51 51 19 109 69 66 42 45
46 61 29 120 78 73 47 52
30 59 31 119 76 70 47 49
34 55 29 109 74 69 46 47
38 52 27 101 69 65 44 45
33 58 33 109 73 68 44 47
31 50 23 102 62 59 38 40
37 48 20 97 60 59 39 43
34 51 24 96 63 58 41 45
28 48 24 92 57 57 38 43
29 41 16 77 48 53 35 39
26 48 25 86 55 59 39 45
16 48 27 93 54 57 38 43
13 48 25 88 51 53 35 41
13 45 23 80 46 48 32 38
10 42 28 78 46 46 31 40
15 35 19 61 32 37 24 32
20 32 14 54 28 37 22 29
13 31 15 51 27 34 20 28
12 31 15 49 24 31 17 26
23 26 3 33 12 23 8 17
32 33 9 38 19 25 10 21
26 34 11 41 20 24 10 19
14 27 13 42 21 26 12 22
5 23 13 38 17 26 12 26
2 25 20 42 19 25 12 25
0 17 12 34 8 18 7 16
4 15 10 26 6 17 5 16
2 16 10 26 3 13 3 15
4 16 10 23 0 12 0 12
11 12 1 8 -8 6 -6 6
5 17 11 15 3 13 1 14
-2 19 14 19 5 13 2 13
-6 15 13 18 2 13 0 13
-10 12 12 17 1 14 0 14
-13 18 17 25 5 15 1 16
-10 7 4 14 -8 7 -6 7
-7 4 2 9 -8 7 -5 7
-6 6 0 9 -10 4 -8 6
-2 8 -1 7 -13 1 -11 2
1 3 -7 -1 -20 -1 -12 0
-10 8 6 10 -9 8 -4 9
-19 11 12 16 -6 10 -2 9
-19 5 12 15 -5 9 -4 9
-18 3 12 15 -4 9 -4 10
-21 11 19 24 -3 11 -3 13
-26 1 12 13 -13 4 -8 5
-19 -1 7 8 -14 2 -10 4
-12 5 6 8 -16 -1 -13 2
-13 0 4 6 -19 -5 -15 -1
-8 -4 -2 -2 -21 -6 -16 -3
-11 8 9 10 -11 1 -10 5
-24 6 12 12 -12 1 -9 3
-25 1 12 9 -13 1 -9 4
-22 -2 12 13 -12 3 -7 5
-24 3 20 26 -5 5 -6 8
-21 -3 11 15 -14 -2 -11 0
-19 -7 10 8 -11 -2 -11 3
-13 -3 7 2 -15 -5 -14 0
-8 -4 4 -4 -22 -8 -17 -4
-3 -9 -4 -9 -28 -9 -17 -5
-7 2 7 7 -15 0 -11 2
-18 3 14 16 -11 2 -8 2
-22 -1 12 15 -14 1 -9 2
-21 -2 14 18 -12 4 -7 4
-26 3 22 26 -7 7 -5 7
-21 -4 12 15 -17 -2 -11 -1
-10 -2 10 12 -16 -2 -12 0
-15 0 11 13 -16 -2 -11 0
-19 -4 12 11 -17 -1 -10 0
-12 -10 6 5 -20 -2 -10 0
-14 1 17 20 -8 7 -4 8
-20 1 20 26 -8 7 -4 5
-20 -4 17 23 -11 4 -7 3
-16 4 18 22 -10 6 -5 5
-24 5 27 33 -5 9 -1 9
-20 -5 17 19 -16 2 -7 2
-15 -4 17 16 -13 5 -5 6
-16 0 18 22 -10 8 -3 8
-15 2 16 22 -10 7 -4 5
-12 -4 9 13 -16 4 -7 3
-16 6 17 21 -7 7 -5 7
-19 6 21 25 -3 8 -4 5
-21 2 23 25 -5 9 -3 7
-20 0 21 25 -5 9 -2 9
-25 3 27 35 -1 12 1 12
-18 -4 15 19 -14 4 -5 3
-10 -5 12 14 -16 5 -6 4
-10 -1 15 19 -12 7 -5 6
-11 1 13 20 -12 4 -7 2
-4 1 9 12 -16 3 -9 1
-10 8 23 24 -2 12 -1 10
-19 7 26 26 -3 13 2 10
-17 3 22 22 -6 9 -1 7
-7 2 19 24 -8 7 -2 7
-2 10 25 34 -2 9 0 9
-3 -1 15 19 -15 1 -10 0
-8 -4 13 13 -12 5 -7 5
-13 5 19 16 -5 9 -4 8
-17 -2 18 20 -4 9 -4 8
-6 -5 10 15 -10 6 -7 5
-7 7 21 29 2 14 0 15
-13 7 21 29 -1 12 -2 11
-13 2 20 26 -3 11 -3 9
-9 8 20 25 0 13 -1 10
-13 8 28 37 5 16 2 16
-15 -2 19 25 -5 10 -2 10
-17 -6 18 23 -4 12 0 11
-18 0 17 23 -4 12 0 11
-14 3 16 21 -4 10 -1 9
-5 -4 10 12 -11 8 -4 6
-5 8 20 23 0 13 1 13
-11 10 23 27 -1 13 -1 11
-12 1 23 27 -1 12 -1 10
-7 3 24 27 1 14 0 13
-13 7 31 36 9 16 2 14
-15 -1 22 22 -5 9 -4 6
-10 -4 19 19 -4 11 -4 8
-11 0 18 18 -3 9 -4 7
-8 3 15 16 -7 6 -7 4
1 -2 9 8 -12 4 -8 3
-8 4 20 20 3 11 -1 13
-15 6 22 26 4 11 -1 11
-16 3 21 27 1 12 0 11
-15 3 21 25 -1 13 1 13
-20 5 29 32 2 15 3 15
-17 -4 19 20 -7 8 -3 7
-11 -2 17 19 -5 10 -1 10
-14 -5 19 20 -4 9 -1 9
-15 -5 17 16 -5 7 -3 8
-7 -7 9 6 -10 4 -5 7
-14 3 20 18 1 11 1 17
-21 2 22 24 1 11 1 13
-21 0 19 23 -2 10 0 11
-22 -1 21 24 -1 11 2 13
-27 5 29 31 4 15 4 17
-24 -3 19 17 -8 6 -2 7
-12 -5 16 12 -8 5 -2 8
-3 1 16 11 -10 3 -4 7
-2 -5 14 8 -11 1 -6 4
6 -10 4 1 -14 -3 -7 4
3 1 15 14 -4 4 -2 9
-9 3 17 19 -5 2 -4 6
-12 0 19 19 -3 4 -3 8
-14 -1 22 22 0 8 1 12
-21 1 30 30 5 11 5 17
-17 -8 18 19 -7 2 -2 8
-10 -8 15 15 -8 3 -2 8
-12 -5 18 17 -7 4 -1 9
-14 -5 17 15 -8 4 -2 7
-9 -7 10 4 -15 -1 -5 3
-10 0 21 18 -3 7 1 14
-19 -1 23 25 -1 7 2 13
-16 -6 18 19 -5 4 0 10
-9 -1 17 17 -5 4 1 10
-17 0 25 26 -3 7 2 12
-16 -14 14 15 -12 0 -5 5
-8 -11 12 12 -12 2 -4 7
-9 -10 16 16 -7 4 -2 9
-9 -9 13 17 -8 3 -2 9
-7 -14 5 9 -14 1 -5 6
-10 -5 16 19 -4 5 -1 13
-12 -5 16 23 -5 2 -5 9
-4 -9 12 18 -10 -1 -9 5
-2 -6 14 18 -8 1 -7 8
-15 -2 22 25 -3 4 -3 11
-19 -16 13 15 -12 -1 -6 5
-15 -16 11 12 -10 3 -3 9
-17 -12 15 12 -9 3 -2 10
-16 -10 13 13 -10 3 -3 8
-12 -13 5 6 -12 1 -5 6
-22 -5 18 18 1 8 1 15
-25 -6 18 21 -3 7 1 12
-14 -6 15 21 -5 7 0 10
-15 -7 17 23 -2 8 1 12
-25 -6 24 32 2 9 3 14
-24 -15 14 21 -9 2 -3 6
-12 -15 10 14 -9 0 -4 6
-4 -12 9 9 -11 -3 -7 4
-4 -13 4 1 -20 -6 -9 -1
1 -16 0 -4 -20 -6 -8 0
-7 -7 12 16 -6 3 0 10
-13 -8 13 21 -6 1 -2 7
-13 -8 13 19 -7 1 -3 11
-12 -8 16 20 -6 1 -3 12
-23 -8 23 28 0 3 0 11
-20 -19 12 12 -13 -5 -7 1
-13 -18 9 9 -12 -3 -5 3
-10 -12 10 10 -9 -3 -4 7
-8 -12 6 8 -12 -6 -5 3
-3 -18 -1 2 -18 -8 -8 -1
-10 -7 10 15 -6 -1 -1 8
-20 -6 14 18 -7 -2 -1 7
-19 -10 13 18 -8 0 -1 7
-16 -9 16 18 -6 3 1 10
-23 -5 22 24 1 5 2 12
-19 -16 10 12 -7 -2 -5 7
-13 -19 8 7 -11 -1 -4 9
-12 -17 7 7 -12 -2 -5 5
-15 -17 5 7 -13 -4 -7 3
-10 -22 -3 1 -17 -7 -9 1
-12 -13 9 16 -4 0 -4 8
-16 -12 11 22 -6 -2 -5 6
-21 -14 12 20 -7 -1 -3 8
-22 -14 17 22 -3 3 1 15
-30 -12 25 29 3 6 4 17
-29 -21 12 15 -7 -1 -1 7
-16 -21 7 8 -9 -1 -4 8
-13 -16 7 7 -6 -3 -4 7
-17 -16 6 13 -6 -3 -4 6
-13 -21 -1 9 -14 -5 -5 7
-23 -15 11 20 -2 4 2 14
-23 -13 13 18 -4 1 1 9
-14 -15 9 10 -11 -4 -4 5
-10 -14 10 14 -10 -5 -4 7
-17 -12 17 28 -3 1 1 10
-16 -24 6 16 -12 -7 -4 3
-10 -22 5 13 -10 -5 -3 7
-10 -18 9 15 -6 -3 -1 9
-14 -20 5 12 -12 -8 -6 4
-8 -23 -1 4 -16 -10 -6 5
-15 -14 11 15 -4 -2 0 15
-25 -17 13 16 -4 -2 2 15
-21 -18 10 16 -4 -3 1 12
-16 -17 10 18 -1 -2 2 12
-23 -14 18 26 1 0 3 15
-19 -23 7 14 -10 -6 -1 7
-13 -21 5 13 -8 -5 -2 10
-16 -17 11 15 -6 -2 1 13
-15 -18 9 14 -6 -6 -2 9
-10 -18 0 3 -15 -9 -6 6
-12 -9 11 15 -4 -1 0 14
-21 -15 12 21 -3 -2 0 11
-20 -15 13 21 -4 -1 0 10
-20 -16 15 20 -1 0 2 12
-27 -14 22 27 2 2 4 15
-24 -20 11 15 -8 -2 -1 7
-14 -17 10 12 -5 -1 -1 10
-14 -16 12 16 -2 -1 -1 11
-14 -15 11 17 -8 -3 -4 8
-17 -24 2 4 -11 -6 -7 5
-18 -13 15 17 -1 1 -1 13
-17 -12 17 21 -1 0 -2 10
-11 -14 14 20 -5 -2 -3 8
-16 -16 17 21 -2 1 -1 11
-27 -13 24 30 4 3 2 14
-21 -20 12 17 -8 -4 -4 9
-11 -18 13 14 -7 -2 -3 10
-14 -16 14 18 -7 -2 -3 8
-15 -16 14 17 -10 -3 -4 6
-11 -21 8 8 -12 -1 -3 6
-23 -12 20 20 0 7 4 15
-25 -10 22 23 1 8 4 13
-22 -11 17 21 -4 5 1 11
-15 -9 14 23 -4 3 -2 9
-18 -10 23 33 2 5 0 13
-14 -20 11 19 -13 -3 -6 5
-3 -20 11 15 -12 -1 -5 8
-5 -15 15 18 -9 0 -4 10
-5 -16 11 14 -15 -2 -8 6
3 -19 4 5 -19 -4 -9 3
-1 -7 18 19 -5 4 -2 12
-7 -3 24 27 -2 5 -1 12
-7 -5 26 32 1 8 2 14
-10 -2 30 37 7 10 4 17
-16 3 38 45 9 12 5 19
-13 -6 27 32 -3 4 -2 11
-10 -6 29 31 1 9 1 16
-13 2 33 30 1 10 4 18
-10 -1 32 22 -4 9 3 16
5 -5 25 12 -9 6 0 12
7 6 36 28 2 14 6 19
-5 4 39 37 5 16 6 17
-7 2 41 41 7 19 8 21
-5 2 45 47 11 22 11 24
-10 6 54 54 14 23 11 27
-6 0 43 42 5 16 7 17
-5 -3 43 42 8 19 10 20
-9 2 43 47 11 20 12 22
-6 -3 35 41 8 18 8 17
4 -8 24 27 -1 13 5 14
3 2 31 36 8 19 11 21
-4 1 28 38 5 17 8 18
-3 -1 25 34 1 16 7 16
1 1 27 37 3 19 10 19
-4 6 33 46 10 23 12 22
-5 -2 21 34 3 17 8 16
-3 1 21 31 4 21 10 24
-4 3 21 30 1 19 11 23
-5 -3 15 25 -6 15 7 16
6 -6 6 14 -11 11 3 12
6 5 17 26 1 17 9 20
2 5 18 31 -3 17 7 16
-2 -1 19 31 -2 18 8 18
1 2 21 33 -1 18 9 20
2 10 25 41 2 20 10 23
6 4 14 28 -9 14 5 16
11 8 15 25 -5 16 8 22
9 6 17 24 -4 17 10 23
5 -3 11 16 -12 12 6 17
13 -5 2 6 -18 9 5 14
5 2 13 18 -8 17 9 21
1 3 15 25 -9 17 9 18
3 0 13 24 -9 18 9 19
0 -2 14 25 -7 19 10 20
-3 5 21 36 -2 22 13 23
5 -3 11 23 -13 14 8 17
6 -5 7 17 -14 13 5 15
4 -2 15 22 -9 15 7 19
0 -4 14 19 -12 13 5 14
1 -7 10 12 -16 14 5 15
-4 3 23 28 -4 20 11 22
-11 -3 24 33 -7 17 9 16
-9 -7 23 29 -8 15 6 16
-10 -8 26 28 -7 16 6 16
-16 -4 30 31 -6 15 5 14
-11 -14 16 20 -18 8 0 7
-6 -12 14 20 -15 10 0 9
-6 -8 18 24 -14 11 0 9
-7 -10 16 21 -15 9 -1 6
-4 -16 10 12 -19 8 -2 8
-10 -3 26 29 -5 18 7 17
-23 -6 29 35 -6 18 6 14
-23 -9 28 31 -9 17 6 14
-24 -11 29 32 -6 17 6 14
-22 -7 31 38 -5 16 5 12
-9 -17 16 23 -18 7 -3 3
-1 -12 14 17 -18 7 -3 4
-2 -12 13 15 -17 6 -5 3
-3 -12 12 13 -18 5 -6 1
-3 -13 9 13 -19 8 -4 5
-12 -4 21 29 -7 14 2 13
-10 -5 22 30 -10 11 -2 7
-5 -7 20 25 -13 8 -4 6
-1 -3 22 26 -10 10 -3 9
-9 -3 29 34 -5 11 -2 11
-7 -13 16 19 -18 4 -8 2
1 -11 17 14 -17 5 -5 6
-3 -12 17 15 -17 4 -7 3
-5 -15 13 14 -18 3 -7 2
0 -16 8 11 -20 4 -6 3
-8 -5 23 28 -6 13 1 13
-14 -5 24 31 -8 12 -3 10
-12 -7 22 29 -11 11 -4 6
-14 -4 25 33 -5 14 -1 10
-20 -2 33 42 0 18 3 14
-11 -11 20 26 -15 9 -4 4
-5 -11 18 22 -13 10 -3 6
-6 -6 20 21 -13 7 -6 4
-7 -10 15 15 -17 5 -7 1
-2 -15 11 8 -20 6 -7 2
-4 -3 24 24 -6 15 0 11
-6 -1 23 27 -8 11 -3 7
-4 -1 21 26 -9 12 -3 6
-5 -3 24 27 -5 13 -1 9
-15 0 31 34 0 16 1 12
-10 -9 18 18 -13 7 -7 2
-5 -11 16 14 -13 8 -6 3
-1 -3 19 15 -12 8 -5 5
-1 -5 16 12 -12 5 -6 1
2 -10 10 7 -14 5 -6 0
-6 1 27 27 -1 13 -1 7
-19 -1 35 36 4 14 -1 6
-23 -6 41 44 10 18 0 10
-19 0 49 58 22 23 3 11
-22 7 55 71 36 33 9 16
-13 5 42 61 36 38 14 19
-3 10 38 65 48 53 26 27
2 18 36 74 60 64 37 33
10 21 29 78 68 75 46 36
20 18 20 78 80 91 57 42
24 38 38 107 114 122 81 65
34 52 46 134 143 149 104 79
53 59 43 155 171 179 127 92
74 72 41 176 198 209 154 110
87 87 38 190 218 232 174 124
105 88 15 177 223 248 189 130
132 104 -17 155 217 257 204 141
151 111 -50 138 208 252 206 145
168 118 -87 111 183 234 199 140
184 122 -125 83 162 220 195 142
176 119 -134 77 145 192 176 131
159 89 -138 36 89 129 123 86
140 61 -145 -36 25 69 75 49
119 54 -155 -108 -33 25 50 37
97 56 -154 -158 -80 -12 31 28
87 39 -174 -224 -147 -63 5 12
70 32 -176 -278 -208 -106 -19 2
46 30 -169 -309 -241 -132 -35 -3
26 25 -162 -308 -243 -139 -44 -10
11 18 -156 -294 -234 -142 -52 -14
-12 27 -128 -254 -211 -132 -51 -10
-27 22 -113 -230 -191 -123 -50 -12
-22 13 -117 -217 -181 -117 -52 -12
-16 11 -123 -206 -168 -113 -52 -14
-26 7 -116 -183 -146 -103 -47 -16
-24 -3 -123 -179 -146 -102 -51 -25
-21 -5 -112 -166 -130 -93 -46 -23
-20 -8 -93 -143 -113 -82 -43 -20
-14 -12 -81 -127 -100 -75 -41 -22
-8 -16 -80 -119 -90 -69 -39 -24
-10 -5 -57 -89 -61 -52 -27 -14
-11 -3 -52 -75 -53 -48 -26 -13
-5 0 -44 -64 -47 -40 -19 -7
-6 2 -28 -49 -31 -28 -13 0
-15 3 -13 -35 -21 -21 -9 0
-7 -4 -19 -47 -28 -26 -13 -7
0 -1 -15 -48 -22 -21 -11 -4
-4 1 -11 -39 -16 -19 -10 0
-5 -1 -14 -39 -19 -23 -14 -6
5 1 -19 -44 -20 -24 -16 -4
0 13 -5 -22 0 -13 -5 5
-8 8 -4 -16 5 -11 -5 3
-5 3 -6 -19 2 -13 -7 0
-3 5 -1 -15 5 -10 -4 3
-10 8 7 -8 7 -7 -1 5
-8 -3 -6 -25 -6 -15 -8 -3
0 -1 -9 -28 -5 -15 -8 -2
-5 -1 -7 -23 0 -14 -7 -1
-6 -1 -9 -25 -2 -16 -9 -4
-3 -3 -13 -31 -2 -14 -10 0
-10 9 1 -11 15 -4 -2 9
-14 8 2 -8 14 -4 -3 6
-2 5 -3 -15 9 -9 -7 1
6 8 -3 -13 9 -10 -8 4
3 12 2 -7 10 -11 -8 5
6 3 -10 -28 -4 -20 -14 -7
12 2 -11 -36 -4 -20 -13 -4
8 2 -10 -37 -2 -19 -14 -4
5 0 -16 -40 -4 -21 -15 -7
14 -2 -23 -44 -2 -20 -12 -7
5 7 -11 -30 8 -13 -5 3
-2 5 -12 -29 7 -15 -6 2
0 4 -13 -31 8 -15 -4 2
-1 5 -12 -31 9 -14 -1 6
-10 8 -5 -27 14 -11 2 9
-5 -2 -20 -50 0 -19 -5 1
0 -1 -26 -57 0 -21 -7 0
-1 0 -28 -51 1 -21 -7 1
2 -2 -35 -52 -3 -26 -11 -3
11 -4 -42 -61 -6 -29 -12 -6
7 9 -29 -45 7 -24 -8 2
-3 5 -26 -41 8 -26 -8 -1
-1 2 -27 -42 8 -26 -7 -1
0 3 -25 -40 13 -23 -5 1
-8 7 -18 -34 16 -23 -3 2
1 0 -29 -50 1 -31 -8 -6
4 -2 -33 -55 1 -32 -9 -7
5 9 -33 -54 0 -34 -12 -8
5 9 -36 -57 -2 -38 -14 -12
7 0 -41 -60 -3 -36 -12 -11
4 15 -26 -40 13 -26 -4 0
-1 12 -28 -38 12 -31 -7 -4
1 6 -30 -40 9 -33 -9 -7
5 13 -28 -37 12 -32 -8 -5
3 13 -21 -30 14 -34 -8 -5
7 1 -32 -45 1 -43 -15 -15
9 2 -31 -46 1 -41 -14 -10
7 10 -28 -43 2 -41 -13 -11
6 7 -30 -46 2 -42 -13 -13
13 0 -37 -57 -1 -44 -17 -18
10 12 -25 -39 13 -34 -9 -8
4 11 -27 -34 14 -34 -8 -6
10 6 -32 -35 11 -35 -8 -8
7 9 -29 -30 20 -31 -4 -4
-3 12 -22 -23 21 -28 -1 -3
2 2 -36 -39 8 -36 -7 -10
14 4 -37 -43 9 -36 -7 -10
14 10 -35 -41 11 -37 -8 -9
13 9 -38 -41 8 -39 -10 -12
18 5 -44 -45 7 -38 -11 -10
11 15 -29 -28 24 -30 -3 -3
4 16 -26 -25 24 -29 -2 -5
4 12 -28 -28 21 -30 -3 -5
2 14 -25 -22 27 -26 1 -1
-5 16 -18 -12 31 -23 3 4
1 5 -33 -28 16 -32 -6 -6
9 4 -32 -29 21 -29 -4 -3
13 14 -31 -25 21 -28 -3 -5
16 13 -36 -29 22 -31 -6 -9
23 11 -40 -35 19 -31 -6 -7
17 22 -25 -14 35 -20 4 3
12 23 -26 -10 34 -20 4 2
13 20 -27 -10 35 -18 6 4
13 19 -25 -9 40 -15 9 7
6 22 -20 -3 43 -13 10 7
15 14 -33 -15 31 -19 6 1
22 15 -37 -19 31 -19 3 1
22 21 -34 -19 33 -18 4 2
24 18 -36 -17 35 -19 3 0
33 17 -42 -19 34 -19 3 3
26 29 -26 2 53 -9 12 12
17 28 -22 8 55 -6 16 11
17 26 -23 8 55 -4 17 12
17 27 -20 13 59 -1 21 17
13 30 -16 20 62 -1 22 16
16 18 -29 4 50 -7 17 9
20 22 -28 -1 53 -4 19 14
25 26 -29 0 56 -4 19 12
31 24 -33 1 53 -6 17 12
40 23 -39 -3 52 -5 17 14
32 35 -24 14 67 5 25 21
23 37 -21 20 70 7 26 22
22 36 -19 21 73 11 30 25
21 43 -13 30 82 16 35 31
15 42 -9 39 84 14 34 29
27 30 -28 22 69 4 24 19
40 36 -30 19 71 4 25 19
45 33 -30 20 71 3 23 18
52 32 -37 13 64 0 20 12
55 32 -41 10 67 4 25 15
46 41 -26 29 83 16 34 25
42 43 -26 35 85 17 36 25
42 41 -26 38 87 21 40 29
42 46 -22 45 96 26 45 32
39 51 -15 53 97 28 47 35
42 39 -27 37 83 21 42 28
50 39 -29 34 84 21 42 29
57 46 -27 37 84 20 41 28
59 48 -34 33 82 17 36 23
62 41 -39 28 81 16 35 26
54 49 -23 47 92 27 44 36
47 49 -24 48 90 23 40 28
52 47 -26 46 88 24 40 28
50 46 -20 51 92 28 44 33
41 48 -15 55 94 29 45 35
50 40 -28 37 77 19 36 25
58 39 -32 35 77 16 34 24
61 45 -30 40 78 16 34 25
59 41 -33 34 73 14 31 21
64 39 -39 21 69 13 30 20
56 50 -24 32 82 21 37 28
44 44 -25 31 78 19 35 24
45 43 -29 31 77 21 37 25
43 46 -25 38 80 23 40 30
39 46 -22 41 78 19 37 27
47 35 -35 21 61 8 28 17
50 34 -34 16 61 8 27 20
48 39 -33 14 62 7 26 18
47 39 -37 6 56 3 24 15
49 34 -43 -4 49 -2 22 15
41 42 -29 13 60 5 27 22
32 39 -28 11 57 4 25 18
32 34 -31 1 52 1 24 19
30 35 -25 0 53 4 28 21
16 34 -21 2 56 4 27 22
18 20 -36 -17 40 -6 20 12
