I II V1 V2 V3 V4 V5 V6
-5 5 26 14 12 2 1 -3
-5 5 26 14 12 2 1 -3
-5 6 26 14 12 2 1 -2
-5 7 27 15 12 2 1 -2
-5 8 27 15 12 2 1 0
-5 8 27 15 12 2 1 0
-4 10 28 16 12 3 2 1
-4 12 27 16 12 4 3 1
-3 13 26 16 13 5 4 1
-3 15 25 16 13 6 5 1
-3 16 24 16 13 6 5 1
-2 17 22 15 13 7 6 2
-2 17 21 14 12 7 6 3
0 17 20 12 10 6 6 4
0 17 19 11 9 6 6 5
0 17 18 10 8 6 6 5
1 17 16 9 7 5 6 6
1 17 14 9 7 5 7 6
2 18 13 8 7 5 7 6
2 18 11 8 7 5 8 6
2 18 10 8 7 5 8 6
3 19 9 7 6 5 9 7
4 19 9 7 6 5 9 7
5 20 9 7 5 5 9 8
6 20 9 7 5 5 9 8
7 20 9 7 5 5 9 8
8 20 8 6 4 6 10 9
8 18 8 6 4 6 10 9
8 16 8 6 4 6 10 9
8 14 8 6 4 6 10 9
8 13 8 6 4 6 10 9
7 12 7 6 4 5 10 8
7 12 7 6 3 3 8 6
8 12 7 5 1 2 6 3
8 12 7 5 0 0 4 1
8 12 7 5 -2 -2 2 -2
7 7 7 3 -3 -3 1 -3
4 3 5 1 -4 -4 0 -4
2 -2 4 -2 -5 -5 -2 -4
-2 -6 2 -4 -6 -6 -3 -5
-4 -10 1 -6 -7 -7 -3 -5
-5 -11 0 -7 -8 -8 -5 -6
-5 -12 0 -7 -9 -8 -6 -6
-6 -13 0 -7 -10 -9 -7 -6
-6 -14 0 -7 -11 -9 -8 -6
-6 -14 0 -7 -11 -9 -9 -6
-7 -16 -2 -8 -12 -10 -10 -7
-7 -17 -3 -9 -12 -10 -10 -7
-8 -18 -3 -9 -12 -10 -9 -7
-8 -19 -4 -10 -12 -10 -9 -7
-8 -20 -4 -10 -12 -10 -9 -7
-9 -21 -5 -11 -12 -11 -9 -7
-8 -20 -5 -11 -12 -11 -10 -8
-7 -19 -5 -11 -12 -11 -11 -9
-6 -18 -5 -11 -12 -11 -12 -10
-5 -17 -5 -11 -12 -11 -13 -11
-2 -16 -5 -8 -10 -9 -12 -11
2 -16 -5 -4 -6 -6 -10 -9
4 -16 -5 1 -3 -4 -8 -7
7 -16 -5 5 2 0 -6 -5
9 -16 -5 8 5 2 -4 -4
13 -10 -4 16 17 14 6 4
17 -2 -3 24 29 27 15 10
20 7 -2 32 42 40 24 17
24 15 0 39 54 53 33 24
27 23 1 48 66 66 43 30
35 35 -14 49 82 90 59 42
44 48 -30 50 99 113 76 54
52 60 -47 51 116 137 94 66
60 73 -63 52 133 161 111 77
68 86 -79 53 150 185 129 90
72 110 -100 46 153 204 147 107
75 136 -120 36 155 224 167 126
79 162 -141 27 157 243 186 144
84 188 -161 18 159 263 205 162
87 214 -182 9 161 282 225 181
70 212 -213 -65 81 220 194 169
51 206 -243 -144 -5 151 159 152
31 201 -275 -222 -91 82 125 136
12 196 -306 -300 -177 13 90 119
-8 191 -338 -379 -263 -56 55 104
-15 152 -342 -399 -296 -99 21 77
-21 111 -345 -416 -325 -140 -13 51
-27 70 -347 -434 -354 -181 -47 24
-33 28 -350 -451 -384 -222 -80 -4
-39 -13 -352 -468 -413 -263 -114 -30
-40 -16 -316 -423 -378 -246 -115 -35
-40 -17 -275 -372 -337 -225 -112 -40
-41 -18 -234 -322 -295 -202 -110 -45
-41 -19 -194 -271 -254 -181 -107 -49
-41 -20 -153 -221 -212 -159 -105 -53
-41 -21 -130 -189 -184 -141 -96 -51
-39 -22 -108 -159 -157 -123 -88 -47
-37 -23 -86 -130 -130 -105 -78 -43
-35 -24 -63 -100 -103 -87 -69 -38
-34 -24 -40 -70 -76 -69 -60 -34
-28 -23 -31 -58 -64 -60 -55 -31
-23 -21 -23 -47 -55 -53 -51 -29
-17 -18 -15 -35 -45 -45 -47 -26
-12 -16 -7 -24 -34 -37 -41 -24
-6 -14 2 -13 -24 -29 -37 -22
-6 -16 5 -9 -20 -28 -36 -21
-8 -21 7 -5 -17 -27 -37 -22
-10 -25 10 0 -13 -26 -38 -23
-12 -29 13 3 -9 -25 -39 -24
-14 -33 15 7 -6 -24 -39 -24
-13 -33 17 10 -3 -21 -39 -24
-11 -31 18 13 0 -19 -37 -23
-9 -29 20 16 3 -16 -35 -21
-7 -27 21 18 6 -13 -33 -20
-5 -25 22 21 8 -11 -32 -19
-4 -24 24 24 10 -10 -31 -18
-4 -25 26 26 12 -10 -32 -18
-4 -26 28 28 14 -10 -32 -18
-4 -27 30 30 16 -10 -33 -18
-4 -27 31 32 17 -10 -33 -18
-4 -28 32 33 18 -9 -34 -19
-4 -27 33 34 19 -8 -34 -19
-4 -26 34 35 20 -7 -33 -19
-4 -25 35 36 21 -6 -33 -19
-4 -25 35 36 21 -6 -33 -19
-4 -24 37 38 22 -5 -32 -18
-4 -24 39 42 23 -5 -32 -18
-4 -24 40 44 23 -5 -32 -18
-4 -24 43 46 24 -5 -32 -18
-4 -24 44 48 24 -5 -32 -18
-3 -25 46 50 26 -4 -33 -17
-2 -25 47 51 27 -3 -33 -17
-2 -25 48 53 29 0 -32 -17
0 -25 49 54 30 1 -32 -17
0 -25 50 55 31 2 -32 -17
1 -26 52 57 33 3 -31 -16
1 -26 54 60 35 3 -32 -16
1 -26 55 62 37 3 -33 -16
1 -26 57 64 39 3 -34 -16
1 -26 58 66 42 3 -35 -16
2 -26 60 69 45 4 -36 -16
3 -26 62 71 48 5 -35 -16
3 -25 64 73 51 6 -34 -16
4 -25 66 76 53 7 -33 -16
4 -25 68 78 56 8 -33 -16
7 -23 71 82 59 10 -31 -15
9 -21 74 87 62 11 -29 -14
12 -20 77 90 65 13 -27 -13
15 -18 80 94 67 14 -26 -12
17 -17 84 98 70 15 -24 -11
17 -17 85 100 71 16 -23 -10
15 -19 86 101 72 16 -22 -11
13 -21 86 103 73 16 -21 -12
12 -22 87 104 74 16 -20 -13
10 -24 87 105 75 16 -19 -14
9 -25 89 108 76 17 -17 -15
9 -25 91 110 76 18 -15 -14
9 -26 93 112 76 20 -13 -14
9 -26 94 115 76 21 -12 -13
9 -26 96 117 76 22 -10 -13
9 -26 97 118 77 23 -9 -12
9 -25 97 118 78 22 -8 -12
9 -23 97 117 78 21 -7 -12
9 -22 97 117 79 20 -6 -12
9 -21 97 117 79 20 -6 -12
10 -20 97 115 79 19 -5 -13
10 -21 96 113 77 18 -5 -13
10 -22 95 111 75 18 -5 -13
10 -23 94 110 74 17 -5 -13
10 -23 94 108 72 17 -5 -13
9 -23 92 106 70 16 -3 -12
9 -22 90 103 67 15 -2 -12
9 -21 88 101 65 15 1 -11
9 -20 87 99 63 14 3 -11
9 -19 85 97 61 14 4 -11
8 -18 84 94 59 13 6 -10
8 -18 82 92 58 12 7 -9
8 -19 82 90 56 12 8 -9
8 -19 81 87 54 11 9 -8
8 -19 81 85 53 11 10 -8
7 -20 78 81 51 10 11 -7
7 -19 75 77 48 9 11 -7
7 -18 72 74 46 9 12 -7
7 -17 70 70 44 8 12 -7
7 -16 67 67 42 8 12 -7
6 -15 65 64 39 7 13 -6
6 -14 62 62 38 6 13 -5
6 -13 60 59 37 5 12 -4
6 -12 58 56 36 4 12 -3
6 -11 56 54 35 4 12 -3
5 -10 53 51 32 3 11 -2
5 -9 51 48 30 3 11 -2
5 -8 49 44 28 2 11 0
5 -7 46 40 25 2 11 0
5 -7 44 37 23 2 11 0
4 -6 42 35 22 1 11 1
5 -6 39 32 21 1 11 2
5 -5 37 30 20 1 11 2
6 -5 35 28 19 1 11 3
6 -5 33 26 19 1 11 3
7 -4 30 23 17 1 12 4
6 -4 28 20 15 0 11 4
5 -4 25 16 13 -2 11 5
4 -4 23 13 11 -3 10 5
3 -4 20 10 9 -4 10 5
3 -2 19 9 7 -5 9 6
4 1 19 8 6 -5 9 6
5 3 18 7 5 -5 9 7
6 4 18 6 3 -5 9 7
7 6 18 6 2 -5 9 7
7 6 16 5 1 -6 9 8
6 4 15 4 1 -6 9 8
5 2 14 3 0 -6 9 8
4 1 13 2 0 -6 9 8
3 -2 12 1 0 -6 9 8
2 -3 11 0 -2 -7 8 8
1 -4 11 -2 -4 -8 6 7
0 -5 10 -2 -5 -9 5 7
-2 -6 10 -3 -6 -10 4 6
-3 -7 10 -3 -7 -10 3 6
-4 -8 9 -4 -8 -11 2 5
-4 -7 9 -4 -8 -11 2 6
-4 -7 9 -4 -8 -11 2 7
-4 -6 9 -4 -8 -11 2 8
-4 -6 9 -4 -8 -11 2 8
-5 -5 9 -5 -7 -11 1 9
-5 -6 10 -4 -7 -11 0 9
-5 -6 10 -3 -7 -11 -2 8
-5 -7 11 -2 -7 -11 -3 8
-5 -7 11 -2 -7 -11 -3 8
-6 -7 12 0 -8 -12 -4 7
-6 -6 12 0 -7 -11 -4 7
-6 -4 12 1 -6 -11 -4 7
-6 -2 12 1 -5 -10 -4 7
-6 0 12 1 -4 -10 -4 7
-5 1 13 3 -2 -9 -4 8
-5 1 15 5 1 -7 -4 8
-6 1 18 8 3 -6 -4 9
-6 1 20 10 5 -5 -4 9
-6 1 22 12 7 -4 -4 9
-6 3 23 13 8 -3 -3 10
-5 4 24 14 9 -2 -2 11
-4 5 24 15 10 0 0 12
-2 7 25 16 11 1 1 13
0 8 25 16 12 2 1 14
1 9 26 17 13 3 2 15
1 9 27 17 13 3 2 15
1 9 27 17 12 3 2 15
1 9 28 17 12 3 2 15
1 9 28 17 12 3 2 15
0 10 28 18 11 3 1 15
0 12 26 16 11 3 1 15
0 14 24 15 11 3 1 15
0 15 23 14 11 3 1 15
0 17 21 13 11 3 1 15
2 18 20 12 10 2 0 16
4 19 19 12 9 2 1 16
6 19 18 11 8 3 2 16
7 20 17 11 7 3 3 16
9 20 17 11 6 3 3 16
10 22 16 10 5 4 4 15
10 23 15 9 5 4 4 15
11 24 14 9 5 4 4 15
11 26 13 8 5 4 4 15
11 27 13 8 5 4 4 15
11 27 11 7 5 4 5 16
10 25 10 5 4 4 4 15
8 23 8 4 2 3 3 15
6 21 6 3 0 3 2 14
5 19 5 2 -2 3 1 14
5 18 4 1 -3 2 0 13
6 18 4 1 -2 2 0 13
8 18 4 1 0 2 1 13
10 18 4 1 1 2 1 13
11 18 4 1 2 2 1 13
10 14 4 1 2 0 1 10
6 8 4 -2 0 -3 -2 8
2 2 4 -3 -4 -6 -4 5
-2 -6 4 -4 -6 -8 -6 2
-6 -12 4 -5 -8 -10 -8 -2
-7 -14 3 -6 -9 -11 -9 -3
-6 -13 3 -6 -9 -10 -8 -3
-6 -13 2 -7 -9 -10 -7 -3
-5 -12 2 -7 -9 -9 -6 -3
-5 -12 2 -7 -9 -9 -6 -3
-4 -11 1 -8 -10 -8 -5 -4
-4 -11 1 -8 -10 -8 -6 -5
-4 -12 1 -9 -11 -9 -7 -5
-4 -12 1 -9 -11 -9 -8 -6
-4 -12 1 -9 -11 -9 -9 -6
-4 -13 0 -10 -12 -10 -10 -7
-4 -13 -2 -10 -12 -10 -10 -7
-3 -13 -3 -11 -12 -10 -9 -7
-3 -13 -4 -11 -12 -10 -9 -7
-3 -13 -4 -11 -12 -10 -9 -7
-2 -12 -5 -12 -12 -10 -8 -7
-2 -13 -5 -12 -12 -10 -8 -7
-2 -13 -5 -12 -12 -10 -8 -8
-2 -14 -5 -12 -12 -10 -8 -8
-2 -14 -5 -12 -12 -10 -8 -8
0 -15 -6 -7 -9 -8 -8 -8
3 -15 -4 0 -3 -4 -5 -7
7 -15 -3 6 4 1 -2 -6
10 -15 -2 12 9 5 1 -4
14 -15 0 18 15 9 4 -3
19 -8 -2 25 28 23 15 6
24 5 -4 32 43 40 28 16
30 17 -7 39 58 59 42 27
36 29 -10 47 72 77 56 37
42 42 -13 54 88 95 69 48
49 54 -27 55 103 117 87 60
57 68 -46 53 117 142 105 72
64 81 -64 50 133 165 125 86
72 95 -82 48 148 189 143 98
80 108 -101 46 163 214 161 110
82 132 -122 27 158 223 176 126
80 158 -144 4 144 228 188 142
79 185 -165 -20 131 233 201 158
78 212 -188 -44 117 238 214 175
77 238 -210 -67 104 243 226 191
60 225 -238 -132 29 184 195 175
37 196 -270 -212 -67 102 149 146
16 168 -302 -291 -162 19 102 117
-7 139 -332 -370 -259 -63 56 89
-29 110 -364 -450 -355 -146 9 61
-37 81 -361 -460 -381 -179 -20 36
-41 53 -346 -444 -382 -195 -44 15
-45 25 -330 -429 -384 -211 -66 -8
-49 -4 -315 -413 -385 -227 -90 -29
-53 -31 -299 -397 -387 -242 -113 -52
-54 -36 -268 -359 -355 -229 -113 -58
-52 -30 -232 -313 -309 -204 -104 -58
-51 -25 -196 -267 -263 -180 -95 -58
-50 -19 -159 -221 -218 -154 -86 -58
-49 -14 -123 -175 -172 -130 -76 -58
-46 -14 -101 -145 -145 -112 -69 -57
-43 -16 -82 -121 -123 -99 -62 -55
-38 -19 -64 -98 -103 -85 -55 -52
-35 -22 -47 -74 -82 -70 -49 -49
-31 -25 -28 -51 -62 -56 -41 -46
-28 -26 -19 -38 -51 -49 -37 -44
-26 -26 -13 -30 -43 -44 -33 -41
-23 -25 -7 -23 -34 -37 -29 -39
-20 -25 0 -15 -26 -32 -25 -37
-17 -25 6 -8 -18 -27 -21 -35
-16 -24 9 -3 -13 -24 -19 -34
-15 -25 12 2 -10 -22 -19 -34
-14 -26 14 5 -6 -20 -19 -34
-13 -27 16 9 -3 -17 -19 -34
-12 -28 19 13 2 -15 -19 -34
-11 -29 20 15 4 -14 -17 -34
-10 -29 21 16 5 -13 -16 -33
-10 -29 22 17 7 -12 -14 -33
-9 -29 22 19 8 -11 -13 -32
-9 -29 23 20 10 -10 -11 -32
-8 -28 25 22 12 -9 -10 -31
-8 -28 27 24 14 -7 -9 -31
-8 -28 28 26 16 -6 -9 -31
-8 -28 30 29 18 -5 -8 -31
-8 -28 32 31 20 -4 -8 -31
-9 -29 33 32 21 -3 -7 -32
-9 -29 34 33 21 -3 -7 -32
-8 -28 34 33 21 -3 -6 -32
-8 -28 35 34 21 -3 -6 -32
-8 -28 35 34 21 -3 -6 -32
-7 -27 37 37 21 -3 -5 -33
-6 -25 40 40 22 -2 -5 -33
-5 -24 44 44 23 0 -4 -34
-4 -23 47 47 24 1 -4 -34
-3 -22 50 50 25 2 -4 -34
-2 -21 51 51 27 3 -3 -35
-4 -22 52 52 29 4 -3 -35
-5 -23 52 53 30 4 -3 -36
-6 -24 53 53 32 5 -3 -36
-7 -25 53 54 34 5 -3 -36
-8 -26 55 57 36 6 -2 -36
-6 -26 58 60 39 8 -2 -34
-5 -26 61 64 43 9 0 -32
-3 -26 63 67 46 10 0 -30
-2 -26 66 70 49 11 0 -28
-2 -26 67 72 50 12 1 -27
-4 -28 68 72 52 12 1 -27
-6 -30 69 73 53 12 1 -27
-9 -32 69 73 54 12 1 -27
-11 -34 70 73 55 12 1 -27
-12 -35 72 77 57 11 0 -26
-10 -34 75 81 60 13 0 -24
-9 -33 77 87 63 14 0 -23
-7 -32 79 91 66 15 0 -21
-6 -31 82 96 69 16 0 -20
-5 -30 85 99 70 17 0 -18
-5 -30 87 101 72 19 1 -16
-4 -30 89 103 73 20 2 -15
-4 -30 91 106 75 21 3 -13
-4 -30 93 108 76 22 4 -11
-3 -29 94 109 77 23 5 -10
-3 -29 96 111 77 23 4 -9
-3 -29 97 112 77 23 3 -9
-3 -29 98 114 77 23 3 -8
-3 -29 99 115 77 23 2 -8
-2 -28 100 116 78 24 1 -6
-2 -27 100 115 78 24 2 -5
0 -26 100 115 77 25 3 -3
0 -25 100 114 77 25 4 -2
0 -24 100 114 77 25 5 1
1 -23 99 113 76 26 6 2
1 -24 98 111 74 25 5 2
0 -25 98 110 73 24 4 3
0 -25 97 109 71 24 3 3
0 -26 97 108 70 23 2 3
-2 -27 96 105 68 22 1 5
-2 -25 94 102 66 21 2 7
-3 -24 93 99 64 20 2 9
-3 -23 91 96 62 19 3 11
-3 -22 90 93 60 18 3 13
-4 -21 89 90 58 17 4 14
-4 -20 87 88 56 16 4 16
-3 -19 86 86 55 16 3 17
-3 -18 84 84 53 15 3 18
-3 -17 82 81 51 15 3 19
-2 -16 80 78 49 14 3 20
-2 -15 78 75 48 14 5 20
0 -14 76 72 46 14 7 21
1 -14 73 69 44 14 9 21
1 -13 71 66 42 14 11 21
1 -13 69 62 39 13 11 22
-3 -15 66 59 36 11 9 20
-5 -17 64 56 33 10 7 19
-8 -19 61 53 30 8 5 17
-11 -21 58 50 27 7 3 16
-12 -21 56 47 26 6 2 15
-11 -19 53 44 26 6 4 15
-10 -16 50 40 26 6 5 16
-10 -14 47 37 26 6 7 17
-9 -11 44 34 26 6 8 17
-8 -10 40 31 25 7 9 18
-8 -10 39 29 22 7 9 18
-9 -11 37 26 19 6 9 18
-10 -12 35 24 16 6 9 18
-10 -12 33 21 13 6 9 18
-11 -13 31 19 11 5 8 17
-11 -13 30 17 10 5 8 17
-11 -12 28 14 9 4 9 18
-11 -11 27 12 8 3 10 18
-11 -11 25 9 7 3 10 18
-11 -10 24 8 5 2 10 19
-11 -10 22 7 3 1 9 18
-11 -10 21 5 0 -2 7 16
-11 -10 19 4 -3 -3 6 15
-11 -10 18 3 -6 -4 4 14
-10 -9 17 2 -7 -5 3 13
-10 -9 17 1 -7 -5 4 13
-11 -9 16 0 -7 -5 5 13
-11 -9 16 0 -7 -5 5 13
-11 -9 16 -2 -7 -5 6 13
-12 -9 15 -3 -7 -5 7 13
-12 -9 15 -3 -7 -5 6 13
-12 -9 16 -2 -8 -5 5 12
-12 -9 16 -2 -9 -5 5 12
-12 -9 16 -2 -9 -5 4 12
-11 -9 17 0 -10 -6 3 11
-11 -9 17 0 -10 -6 4 11
-11 -9 16 0 -9 -5 5 11
-11 -9 16 0 -8 -5 5 11
-11 -9 16 0 -8 -5 6 11
-10 -10 15 0 -7 -4 7 11
-10 -10 15 1 -7 -4 7 11
-9 -10 16 2 -7 -4 6 10
-8 -10 17 3 -7 -4 5 10
-8 -10 17 4 -7 -4 5 10
-7 -9 18 5 -6 -3 4 9
-7 -8 18 5 -4 -3 4 9
-7 -6 19 6 -3 -2 5 9
-7 -5 19 6 0 0 6 9
-7 -3 19 6 1 0 6 9
-7 -2 21 8 2 1 7 9
-7 0 22 10 3 2 7 9
-6 1 24 13 4 3 7 9
-5 1 26 15 5 4 7 9
-5 2 28 18 6 5 7 9
-3 4 29 19 7 6 8 8
0 6 29 19 8 6 9 9
2 9 30 20 10 7 10 10
4 11 30 20 11 7 11 11
7 14 30 20 12 7 12 12
7 14 31 21 13 8 13 13
4 11 30 20 12 8 12 11
1 9 29 18 10 7 10 9
-3 6 28 17 9 6 9 8
-5 4 27 16 8 6 8 6
-7 3 25 15 7 5 7 5
-6 6 23 15 7 5 7 6
-5 8 21 14 7 6 8 7
-4 11 19 13 7 6 9 8
-3 13 16 13 7 6 9 9
-2 15 15 12 6 7 10 10
0 15 15 11 5 6 10 10
1 14 14 9 4 5 10 9
1 14 13 8 4 5 10 9
2 14 13 7 3 4 10 9
3 13 12 6 2 3 9 8
3 15 11 6 2 4 10 9
4 16 10 5 2 5 11 11
4 18 9 4 2 5 11 12
4 19 8 4 2 6 12 13
5 20 7 3 1 7 13 14
5 18 7 3 1 7 13 13
5 16 6 3 1 7 12 12
5 15 6 3 1 7 11 12
5 13 6 3 1 7 11 11
6 11 5 4 0 7 10 10
5 8 5 4 0 6 9 8
3 5 5 3 0 4 7 7
2 2 5 2 0 3 6 5
1 -2 5 2 0 2 5 4
0 -4 4 1 0 1 4 3
0 -6 4 0 -3 -2 2 1
-2 -7 3 -3 -5 -3 0 -2
-3 -9 2 -4 -6 -5 -2 -3
-3 -10 2 -5 -8 -6 -4 -5
-4 -11 1 -6 -9 -7 -5 -6
-4 -11 1 -7 -9 -7 -5 -6
-4 -12 0 -8 -10 -8 -6 -6
-4 -13 -2 -9 -10 -8 -6 -6
-4 -13 -2 -10 -10 -8 -6 -6
-5 -14 -3 -11 -11 -9 -7 -6
-5 -14 -3 -10 -11 -9 -7 -6
-4 -13 -2 -9 -10 -8 -7 -6
-3 -12 -2 -9 -10 -8 -7 -6
-3 -12 -2 -8 -10 -8 -7 -6
-2 -11 0 -7 -9 -7 -7 -6
-2 -10 0 -7 -9 -7 -7 -6
-2 -9 0 -8 -8 -7 -7 -5
-2 -8 0 -8 -7 -7 -7 -5
-2 -7 0 -8 -7 -7 -7 -5
0 -9 -3 -9 -6 -7 -7 -4
0 -14 -5 -9 -6 -7 -7 -5
0 -20 -7 -9 -7 -8 -8 -7
0 -26 -9 -9 -7 -8 -9 -8
0 -31 -11 -9 -7 -8 -9 -9
1 -30 -11 -4 -3 -4 -7 -8
4 -23 -9 5 9 6 1 -3
8 -16 -6 13 19 15 7 3
12 -9 -4 21 30 24 13 8
16 -2 -2 29 40 34 20 13
21 9 -5 35 55 51 31 22
28 19 -15 38 72 74 48 33
35 30 -25 43 89 97 63 45
43 42 -35 47 106 119 78 56
50 53 -46 51 122 143 95 68
56 70 -62 50 136 165 113 82
62 94 -81 45 146 188 134 100
68 116 -102 39 156 210 154 117
75 140 -122 33 167 232 175 135
81 163 -143 28 177 255 196 152
77 178 -169 -7 149 250 200 160
63 185 -198 -66 90 222 190 160
50 192 -228 -124 31 193 180 161
35 199 -258 -183 -28 165 171 161
22 206 -288 -241 -88 138 160 161
9 190 -310 -294 -150 84 129 145
-4 153 -325 -341 -215 9 80 113
-16 116 -341 -387 -280 -65 31 80
-27 78 -356 -434 -345 -140 -18 49
-39 42 -371 -481 -410 -215 -66 17
-47 18 -359 -479 -421 -242 -92 -5
-50 6 -324 -434 -384 -231 -98 -16
-53 -8 -288 -390 -347 -220 -104 -27
-55 -20 -253 -345 -310 -208 -111 -38
-58 -32 -217 -301 -274 -197 -117 -50
-57 -36 -186 -261 -239 -181 -115 -54
-52 -31 -158 -224 -206 -159 -105 -49
-46 -26 -131 -187 -174 -138 -95 -44
-39 -21 -103 -150 -140 -115 -83 -38
-33 -17 -75 -113 -107 -94 -73 -34
-29 -15 -57 -88 -85 -78 -66 -30
-26 -17 -46 -73 -71 -69 -62 -28
-23 -19 -34 -58 -57 -60 -57 -26
-21 -21 -23 -43 -43 -50 -53 -24
-18 -23 -12 -27 -29 -40 -49 -22
-15 -25 -4 -18 -20 -34 -46 -21
-13 -24 0 -13 -15 -31 -44 -21
-11 -23 4 -8 -10 -28 -43 -20
-9 -23 8 -3 -6 -25 -41 -19
-7 -22 12 3 0 -22 -39 -19
-5 -21 14 7 4 -19 -38 -18
-4 -21 16 9 7 -17 -37 -17
-3 -20 18 12 11 -15 -36 -15
-2 -19 20 14 14 -13 -35 -14
0 -19 22 16 17 -11 -34 -13
0 -19 23 18 19 -9 -33 -12
-3 -21 23 18 19 -9 -33 -12
-5 -24 23 19 20 -10 -33 -12
-7 -27 23 19 21 -11 -33 -12
-9 -29 23 19 21 -11 -33 -12
-11 -31 23 21 22 -12 -34 -13
-10 -31 25 23 24 -10 -34 -13
-9 -31 26 25 26 -9 -34 -13
-9 -31 27 27 27 -8 -34 -13
-8 -31 29 29 29 -6 -34 -13
-7 -32 30 31 30 -5 -35 -14
-7 -31 32 32 30 -5 -35 -14
-6 -29 33 34 31 -5 -35 -14
-6 -28 34 35 32 -5 -35 -14
-6 -27 36 36 32 -5 -35 -14
-5 -26 37 38 34 -6 -34 -14
-5 -27 38 40 36 -4 -32 -14
-5 -28 40 43 38 -3 -30 -14
-5 -28 42 45 40 -2 -29 -14
-5 -29 43 47 43 1 -27 -14
-6 -30 45 50 45 2 -26 -14
-6 -29 47 52 47 2 -24 -14
-5 -27 50 55 49 3 -22 -13
-4 -26 52 58 51 4 -21 -12
-4 -25 54 60 53 4 -19 -12
-3 -24 56 63 55 5 -18 -11
-3 -25 57 65 57 5 -17 -11
-3 -27 58 67 60 6 -15 -12
-3 -28 59 69 62 7 -14 -13
-3 -29 60 71 64 7 -13 -13
-3 -30 62 73 67 8 -12 -14
-3 -30 64 76 69 9 -11 -14
-2 -29 67 79 72 10 -9 -15
0 -28 70 81 74 10 -8 -16
0 -28 72 85 76 11 -7 -16
1 -27 74 88 79 12 -6 -17
2 -27 76 91 81 13 -4 -17
3 -26 78 94 85 15 -2 -17
4 -26 80 97 88 16 0 -17
5 -26 82 100 90 17 2 -17
6 -25 84 102 92 18 3 -16
6 -24 86 104 92 18 4 -16
6 -24 87 106 92 18 5 -16
6 -23 89 108 92 18 6 -16
6 -22 91 110 92 18 7 -16
6 -21 92 111 93 19 8 -16
6 -23 92 111 92 19 8 -16
6 -25 92 111 92 19 9 -16
6 -27 92 111 91 20 10 -16
6 -29 92 111 90 20 10 -16
5 -30 92 112 88 21 12 -16
6 -28 92 112 86 21 14 -16
6 -26 92 111 82 21 16 -16
7 -23 92 110 79 21 18 -15
8 -21 92 110 77 21 20 -15
9 -19 91 108 74 22 22 -14
9 -19 89 106 70 21 22 -14
9 -19 88 103 66 20 22 -14
9 -19 87 100 62 18 22 -14
9 -19 85 98 58 17 22 -14
9 -19 84 95 54 16 22 -15
7 -19 81 92 52 14 21 -15
6 -20 79 89 50 12 20 -15
5 -21 77 85 48 10 19 -16
3 -21 75 81 46 8 18 -16
2 -22 73 79 43 7 17 -17
2 -21 72 77 40 8 17 -16
2 -20 71 75 38 8 17 -15
2 -19 69 73 36 9 17 -13
2 -18 68 71 34 10 17 -12
2 -17 67 68 32 11 18 -11
2 -16 65 65 30 11 19 -10
2 -15 63 62 29 10 20 -10
2 -14 61 59 27 9 21 -9
2 -13 59 56 25 9 22 -8
1 -12 56 53 24 8 23 -7
1 -12 53 50 22 8 23 -7
1 -12 50 47 21 8 23 -7
0 -12 47 44 19 8 22 -7
0 -12 44 40 17 8 22 -7
-2 -12 42 37 16 7 21 -8
-2 -10 39 35 14 6 21 -7
-2 -9 37 33 13 6 21 -7
0 -8 35 30 11 5 21 -6
0 -6 33 28 9 4 21 -5
1 -5 31 25 7 3 21 -4
1 -5 28 23 5 3 20 -4
1 -5 26 20 3 3 20 -4
1 -4 23 18 1 2 19 -5
1 -4 20 15 -2 2 18 -5
1 -3 18 13 -4 1 17 -6
1 -2 18 11 -4 1 17 -5
1 0 17 10 -4 0 18 -5
1 1 16 8 -5 -2 19 -4
1 2 16 6 -5 -2 19 -3
1 3 15 5 -6 -3 20 -2
3 3 15 5 -6 -2 20 -2
5 3 15 5 -6 0 20 0
7 3 15 5 -6 1 20 1
9 3 15 5 -6 2 20 1
10 4 14 5 -7 3 21 2
5 2 12 3 -9 0 18 0
1 0 11 1 -10 -3 16 -2
-5 -3 10 -2 -11 -5 14 -3
-9 -5 8 -4 -13 -7 12 -5
-12 -6 7 -5 -14 -9 10 -6
-10 -6 8 -4 -14 -8 10 -5
-9 -6 8 -3 -14 -7 10 -5
-7 -7 9 0 -14 -5 11 -4
-5 -7 10 1 -14 -4 11 -3
-4 -8 11 2 -13 -3 12 -2
-4 -7 11 2 -13 -3 12 -2
-4 -6 11 2 -13 -4 12 -2
-4 -4 11 1 -12 -5 12 -3
-4 -3 11 1 -12 -5 12 -3
-4 -2 11 0 -11 -6 12 -4
-4 -3 12 2 -11 -6 11 -4
-4 -3 12 3 -11 -5 10 -4
-5 -4 13 4 -10 -4 8 -4
-5 -5 14 6 -10 -4 7 -4
-6 -6 15 7 -9 -3 6 -5
-5 -3 17 8 -6 -3 7 -5
-4 0 18 9 -4 -2 8 -4
-3 2 20 11 -2 0 10 -3
-2 4 22 12 1 0 11 -3
0 6 23 13 3 1 12 -2
0 5 24 14 3 3 12 0
0 5 24 15 3 4 12 0
0 4 25 17 4 5 12 1
0 3 26 18 4 7 12 2
-2 2 27 19 5 8 12 3
-2 5 27 19 5 8 12 3
-2 7 27 18 6 7 11 3
-2 9 27 17 7 6 10 2
-2 11 27 17 7 6 10 2
-3 13 28 16 8 5 9 1
-2 14 27 16 8 5 9 1
0 16 25 15 8 5 9 1
2 17 24 14 7 5 9 2
3 19 22 14 7 5 9 2
4 20 21 13 6 6 10 3
4 20 18 11 5 6 10 3
4 20 16 10 5 6 10 3
4 19 14 8 4 6 11 3
4 19 12 6 3 6 11 3
3 18 10 5 2 5 12 3
4 18 10 5 2 6 12 4
4 19 10 6 2 6 12 6
5 20 10 7 2 7 12 7
6 20 10 7 2 8 12 9
7 21 10 8 3 9 11 10
8 21 10 8 4 9 12 10
9 21 10 7 4 9 13 11
10 22 9 6 5 9 14 12
11 22 9 6 6 9 15 12
12 23 8 5 7 10 16 13
12 21 8 5 6 10 15 12
12 19 8 5 5 10 14 11
12 17 7 5 4 9 12 10
12 15 7 5 3 9 11 9
11 13 6 6 2 8 10 8
9 11 6 6 1 6 8 6
8 10 6 5 1 4 6 4
6 8 6 4 0 2 4 2
4 6 6 4 -2 0 3 1
3 4 6 3 -3 -3 1 -2
1 1 5 1 -5 -4 -2 -3
-2 -4 3 -2 -6 -6 -3 -4
-4 -7 2 -4 -8 -7 -5 -6
-5 -10 0 -6 -10 -9 -7 -7
-7 -13 -2 -8 -11 -10 -8 -8
-6 -13 -2 -8 -11 -10 -8 -8
-6 -13 -2 -8 -11 -10 -8 -8
-5 -12 -3 -8 -10 -10 -8 -7
-4 -12 -3 -8 -10 -10 -8 -7
-3 -11 -4 -9 -9 -10 -8 -6
-3 -12 -4 -9 -9 -10 -8 -6
-3 -14 -4 -9 -9 -10 -8 -6
-3 -15 -4 -9 -10 -10 -9 -6
-3 -17 -4 -9 -10 -10 -9 -6
-4 -18 -4 -9 -11 -10 -10 -7
-4 -18 -4 -9 -10 -10 -10 -7
-4 -18 -4 -9 -9 -10 -9 -7
-3 -17 -5 -9 -8 -10 -8 -6
-3 -17 -5 -9 -7 -10 -8 -6
0 -16 -6 -8 -5 -8 -7 -5
3 -16 -6 -2 1 -4 -5 -5
7 -16 -6 5 6 2 -3 -5
11 -15 -5 11 11 6 0 -5
14 -15 -5 17 16 10 1 -5
19 -10 -4 23 24 19 8 -2
24 3 -7 29 39 36 21 10
29 16 -10 35 55 54 35 22
35 28 -12 42 70 71 49 33
40 40 -15 49 86 89 63 45
47 53 -23 52 100 108 78 57
55 66 -40 49 114 132 97 71
62 79 -59 46 128 155 115 85
69 93 -76 43 141 179 134 98
77 105 -95 39 154 202 151 111
82 123 -114 28 158 219 168 127
79 149 -139 2 144 222 180 143
77 175 -162 -25 130 226 193 159
75 200 -186 -52 115 229 205 176
73 227 -211 -78 100 232 219 192
65 234 -236 -123 57 206 211 193
46 207 -266 -199 -38 126 163 165
26 181 -297 -275 -134 45 116 138
7 154 -326 -352 -228 -36 69 109
-13 128 -356 -428 -323 -117 22 81
-26 100 -369 -471 -384 -175 -16 56
-32 72 -352 -453 -383 -189 -38 33
-37 44 -335 -435 -382 -204 -61 11
-43 16 -317 -418 -381 -219 -82 -12
-48 -13 -300 -400 -380 -233 -105 -34
-51 -30 -275 -371 -362 -234 -116 -49
-48 -25 -238 -323 -316 -207 -107 -49
-44 -20 -201 -275 -269 -182 -98 -48
-40 -15 -163 -227 -222 -155 -89 -47
-37 -11 -127 -180 -176 -129 -78 -47
-34 -8 -97 -141 -139 -107 -71 -45
-31 -13 -82 -120 -120 -96 -65 -41
-28 -18 -67 -100 -102 -85 -60 -38
-25 -23 -53 -79 -82 -72 -54 -35
-22 -27 -37 -59 -64 -61 -49 -32
-20 -31 -25 -44 -50 -52 -44 -29
-17 -30 -19 -35 -43 -47 -40 -28
-14 -30 -13 -27 -35 -41 -37 -26
-11 -29 -7 -19 -27 -36 -34 -25
-8 -28 0 -12 -20 -31 -31 -23
-6 -27 5 -5 -14 -27 -28 -22
-5 -26 8 -2 -11 -25 -26 -22
-4 -25 10 2 -8 -23 -25 -21
-2 -24 13 5 -5 -21 -23 -20
0 -23 15 8 -2 -19 -22 -20
1 -22 17 10 2 -17 -20 -19
1 -22 17 12 3 -17 -19 -19
2 -22 18 14 4 -17 -19 -19
3 -23 19 16 5 -17 -18 -19
3 -23 19 17 6 -17 -17 -19
4 -24 20 19 7 -16 -16 -19
4 -24 21 20 9 -16 -16 -19
4 -24 22 21 11 -15 -16 -19
4 -25 23 22 13 -14 -16 -19
4 -25 24 23 14 -14 -16 -19
4 -26 25 24 16 -13 -15 -20
4 -26 26 25 16 -12 -15 -20
4 -25 27 26 17 -12 -15 -20
5 -25 28 27 17 -11 -14 -20
5 -24 29 28 18 -10 -14 -20
6 -23 30 29 19 -9 -13 -19
6 -23 31 31 21 -9 -13 -19
6 -23 33 33 22 -8 -13 -19
5 -24 34 35 24 -8 -13 -19
5 -24 36 37 25 -7 -13 -19
4 -25 37 39 27 -6 -14 -20
5 -25 39 42 28 -5 -14 -20
6 -25 40 45 29 -4 -14 -20
7 -24 43 47 30 -3 -13 -20
8 -24 44 49 31 -2 -13 -20
9 -23 46 51 32 0 -12 -20
10 -23 48 54 35 0 -12 -20
10 -23 49 56 38 0 -11 -20
11 -23 51 58 42 1 -11 -20
12 -23 52 61 45 1 -10 -20
13 -22 54 63 47 2 -9 -19
13 -22 56 66 49 3 -9 -19
13 -22 58 69 51 4 -9 -19
13 -22 60 72 52 5 -9 -19
13 -22 62 75 54 6 -9 -19
14 -23 64 77 56 7 -9 -19
14 -23 66 80 59 7 -8 -19
15 -23 69 82 61 7 -8 -19
15 -23 71 85 63 8 -7 -19
16 -23 73 88 66 8 -6 -19
17 -23 75 90 68 9 -5 -19
17 -23 77 93 70 11 -5 -19
18 -23 79 96 71 13 -4 -19
18 -23 81 99 73 15 -4 -18
19 -23 84 102 74 17 -3 -18
20 -22 86 104 76 19 -2 -17
20 -23 86 104 76 19 -2 -17
20 -24 86 104 76 18 -2 -17
19 -25 86 104 77 18 -3 -18
19 -26 86 104 77 17 -3 -18
18 -27 87 105 78 16 -4 -19
17 -27 86 104 76 15 -5 -19
16 -27 86 104 74 15 -5 -20
15 -28 85 103 72 14 -6 -20
13 -28 84 102 70 13 -7 -21
12 -29 82 101 68 12 -8 -22
13 -28 82 99 67 11 -8 -22
13 -26 81 98 66 11 -8 -22
14 -25 81 96 65 10 -8 -22
15 -23 80 95 63 9 -8 -22
16 -22 79 93 62 8 -8 -21
16 -21 79 91 61 8 -8 -20
16 -20 78 88 60 8 -8 -20
16 -19 78 86 59 8 -8 -19
16 -18 77 84 58 8 -8 -18
17 -17 76 81 57 7 -7 -17
17 -17 75 78 54 6 -8 -17
17 -17 74 76 52 5 -8 -17
16 -17 73 74 49 4 -9 -17
16 -17 71 71 46 3 -10 -17
15 -17 70 69 44 2 -11 -18
15 -16 67 66 42 2 -10 -17
15 -16 65 63 39 2 -10 -16
15 -15 62 60 37 1 -9 -15
15 -14 59 58 35 1 -8 -14
15 -13 57 55 33 0 -7 -13
15 -13 55 53 32 0 -7 -13
15 -13 53 51 31 0 -7 -12
15 -13 52 49 30 0 -8 -12
15 -13 50 47 28 0 -8 -11
14 -13 48 45 27 0 -9 -10
14 -11 45 40 26 0 -8 -10
14 -9 43 37 25 0 -8 -10
14 -8 40 34 24 0 -7 -9
14 -6 37 31 23 0 -6 -9
13 -4 35 28 22 -2 -5 -8
14 -4 34 26 21 -2 -4 -7
14 -3 32 25 20 -2 -4 -6
15 -3 31 23 19 0 -3 -5
16 -2 30 22 17 0 -2 -4
17 0 28 20 16 1 0 -3
16 0 25 16 13 -2 0 -3
16 -2 23 13 11 -4 0 -3
15 -2 20 10 8 -5 0 -3
14 -3 17 7 5 -7 0 -3
13 -4 15 4 3 -9 -2 -4
12 -4 14 3 2 -9 -3 -4
11 -5 14 1 1 -9 -4 -5
10 -5 13 0 0 -10 -5 -5
8 -6 12 -2 -2 -10 -7 -6
7 -7 11 -4 -3 -11 -8 -7
8 -5 11 -4 -3 -11 -8 -7
9 -3 11 -3 -3 -11 -7 -6
10 0 11 -3 -3 -11 -7 -6
11 2 11 -2 -3 -11 -6 -5
12 4 11 0 -2 -10 -5 -4
9 0 10 -2 -3 -10 -6 -5
6 -4 10 -2 -4 -11 -8 -5
3 -7 9 -3 -5 -11 -9 -6
0 -10 8 -4 -6 -12 -10 -7
-4 -13 7 -5 -7 -13 -12 -8
-3 -12 7 -5 -6 -13 -11 -8
-2 -11 8 -4 -6 -13 -10 -7
0 -10 8 -4 -5 -12 -9 -7
1 -9 9 -3 -4 -12 -8 -6
2 -8 10 -2 -3 -11 -7 -5
2 -8 12 0 -2 -10 -7 -5
2 -8 14 2 0 -9 -7 -5
2 -8 15 3 1 -8 -7 -4
2 -8 17 4 3 -7 -7 -4
1 -7 19 6 4 -6 -7 -3
1 -4 19 6 5 -6 -7 -3
1 -2 19 7 6 -6 -6 -3
0 2 19 7 7 -6 -6 -3
0 5 19 8 8 -6 -5 -3
-2 7 20 9 9 -6 -4 -3
-2 7 20 11 10 -5 -4 -3
0 7 21 13 12 -3 -3 -3
1 7 22 14 14 0 -2 -3
2 7 23 16 15 1 0 -3
3 6 24 18 17 3 1 -2
3 7 24 18 17 3 1 -2
3 8 25 18 17 3 1 -2
2 9 26 17 17 3 1 -2
2 11 27 17 17 3 1 -2
1 12 28 16 17 3 1 0
2 13 28 16 17 3 1 1
4 14 28 16 17 4 2 2
5 15 27 16 17 4 2 3
6 16 27 16 17 5 3 5
8 17 26 16 18 6 4 6
7 17 23 14 16 5 4 6
6 17 20 12 14 4 4 6
5 17 17 10 13 3 4 6
3 17 14 8 11 2 4 6
2 16 11 6 9 1 3 5
2 16 11 6 9 1 3 5
2 16 11 6 9 1 3 6
3 16 11 6 9 2 4 6
3 16 11 6 9 2 4 7
4 15 10 6 8 3 5 8
6 18 10 6 8 3 6 9
8 20 9 6 8 3 7 10
10 23 8 5 9 4 8 11
12 25 7 5 9 4 9 12
14 28 6 4 10 5 10 13
14 25 6 4 9 5 10 13
13 23 6 4 7 5 9 12
12 20 6 4 6 5 9 12
11 18 6 4 5 5 8 11
10 15 6 4 3 4 7 10
6 10 6 3 3 2 5 7
3 6 5 1 2 0 3 5
0 1 5 -2 1 -3 1 2
-5 -4 4 -3 0 -5 -2 0
-8 -8 3 -5 -2 -7 -4 -4
-8 -8 3 -5 -3 -7 -4 -4
-7 -9 3 -5 -4 -7 -4 -4
-7 -10 2 -6 -5 -8 -5 -4
-6 -11 2 -6 -7 -8 -5 -4
-5 -12 1 -7 -8 -9 -6 -4
-5 -12 1 -7 -8 -9 -6 -4
-5 -12 1 -7 -8 -9 -6 -5
-5 -12 0 -8 -8 -9 -6 -5
-5 -12 0 -8 -8 -9 -6 -6
-5 -11 -2 -9 -9 -10 -6 -7
-5 -11 -2 -9 -9 -10 -6 -7
-5 -12 -2 -9 -9 -10 -7 -7
-5 -13 -2 -9 -10 -10 -7 -8
-5 -14 -2 -9 -10 -10 -8 -8
-5 -15 -3 -8 -11 -11 -9 -9
-5 -15 -3 -8 -11 -11 -9 -9
-5 -15 -4 -8 -11 -11 -9 -9
-5 -14 -5 -9 -11 -11 -8 -9
-5 -14 -6 -9 -11 -11 -8 -9
-4 -13 -7 -10 -10 -11 -7 -8
0 -15 -7 -6 -6 -9 -7 -8
2 -17 -7 -3 -3 -7 -6 -8
5 -19 -7 1 1 -4 -6 -7
7 -21 -7 5 5 -2 -5 -7
10 -21 -6 9 10 3 -3 -5
15 -11 -6 16 21 15 9 4
20 1 -6 22 32 28 19 11
24 12 -5 29 44 42 29 19
29 23 -5 36 55 54 39 26
34 33 -6 43 67 69 52 35
44 45 -18 45 84 93 68 48
53 56 -31 48 100 117 86 61
62 66 -44 50 117 141 103 74
71 77 -56 53 134 164 120 87
79 91 -70 53 148 188 138 101
80 118 -92 37 148 205 156 118
81 145 -113 22 148 223 175 136
82 172 -135 7 147 240 193 153
84 199 -156 -9 147 258 213 171
81 221 -180 -35 131 260 222 184
61 215 -213 -110 45 189 186 167
40 209 -245 -186 -41 119 151 150
19 202 -278 -261 -129 49 115 133
-2 196 -310 -337 -215 -22 79 116
-20 184 -338 -400 -289 -86 45 98
-27 143 -338 -412 -313 -120 13 71
-34 102 -339 -424 -336 -155 -19 45
-41 62 -340 -435 -358 -189 -51 18
-49 21 -341 -446 -381 -224 -82 -9
-55 -13 -336 -448 -393 -249 -109 -31
-55 -15 -296 -397 -352 -227 -107 -34
-55 -17 -255 -345 -310 -205 -104 -37
-56 -19 -215 -294 -268 -184 -102 -41
-56 -22 -175 -241 -226 -161 -99 -45
-56 -24 -138 -194 -186 -141 -96 -48
-50 -23 -117 -166 -161 -124 -86 -45
-44 -21 -96 -139 -137 -107 -75 -40
-36 -19 -75 -110 -112 -91 -65 -37
-30 -18 -55 -82 -88 -74 -56 -33
-24 -16 -35 -58 -65 -59 -47 -30
-21 -17 -29 -49 -56 -53 -44 -28
-19 -19 -22 -39 -47 -47 -39 -26
-16 -20 -16 -30 -38 -39 -36 -24
-14 -21 -9 -21 -29 -33 -32 -21
-11 -23 -3 -13 -21 -27 -29 -19
-11 -23 1 -9 -18 -25 -29 -19
-11 -23 3 -6 -15 -23 -28 -19
-11 -23 6 -2 -11 -21 -28 -19
-11 -23 8 2 -8 -19 -27 -19
-10 -22 11 6 -5 -17 -26 -18
-10 -22 12 8 -3 -16 -26 -18
-9 -23 14 10 1 -14 -26 -18
-8 -24 15 12 3 -12 -26 -18
-7 -25 16 14 5 -11 -26 -18
-6 -26 18 16 8 -9 -26 -18
-6 -26 19 17 9 -9 -26 -18
-6 -25 20 19 10 -9 -25 -18
-6 -24 21 20 11 -9 -25 -17
-6 -23 22 21 12 -9 -24 -17
-5 -22 23 23 14 -9 -23 -16
-5 -22 24 24 15 -8 -23 -16
-4 -22 25 26 16 -7 -23 -15
-4 -23 26 27 17 -6 -22 -15
-3 -23 27 28 18 -5 -22 -14
-2 -24 28 30 20 -3 -21 -13
-2 -24 28 31 21 -3 -21 -14
-2 -23 29 32 22 -3 -21 -15
-2 -23 29 34 23 -3 -21 -16
-2 -22 30 35 24 -3 -21 -17
0 -21 31 37 25 -3 -22 -19
0 -22 31 38 25 -3 -23 -19
0 -23 32 39 25 -3 -25 -19
-2 -24 32 40 26 -2 -27 -20
-2 -25 33 42 26 -2 -28 -20
-3 -27 34 44 27 0 -30 -21
0 -24 36 47 29 1 -30 -21
3 -21 38 50 32 2 -30 -21
6 -18 40 54 35 3 -30 -20
8 -15 43 57 37 4 -30 -20
11 -12 45 60 40 6 -30 -19
9 -15 45 61 40 6 -30 -19
6 -18 46 62 42 6 -31 -20
3 -22 46 63 42 6 -32 -20
1 -25 47 64 43 6 -33 -21
-3 -28 48 66 44 5 -34 -22
-2 -27 50 69 46 6 -34 -22
1 -26 52 72 49 7 -33 -22
2 -25 54 75 52 9 -32 -21
4 -24 57 79 54 10 -31 -21
6 -22 59 82 57 12 -30 -20
6 -23 60 85 58 13 -30 -20
6 -24 61 86 59 14 -30 -20
5 -25 62 88 61 15 -30 -20
5 -26 63 90 62 16 -30 -20
4 -27 64 92 64 17 -31 -20
4 -27 65 93 64 17 -31 -20
5 -26 66 95 65 17 -31 -20
6 -26 67 96 66 17 -31 -20
7 -25 68 98 67 17 -31 -20
8 -24 70 100 68 18 -31 -20
8 -24 70 100 68 18 -31 -20
8 -24 70 100 67 18 -31 -20
8 -23 70 100 66 18 -32 -19
8 -23 70 100 65 18 -32 -19
7 -22 71 99 64 18 -33 -18
7 -22 71 98 64 17 -33 -18
7 -21 71 97 63 16 -34 -18
7 -21 70 95 62 15 -34 -18
7 -20 70 94 61 14 -35 -18
8 -19 69 92 60 12 -36 -19
8 -19 71 90 58 12 -36 -18
8 -19 74 88 56 12 -35 -17
8 -19 76 86 54 12 -34 -15
8 -19 78 84 52 12 -33 -14
8 -20 81 81 50 12 -32 -12
8 -19 81 79 49 11 -32 -12
8 -18 80 77 47 10 -33 -12
8 -16 79 75 46 8 -33 -13
8 -15 78 72 44 7 -34 -13
7 -13 77 70 42 5 -35 -14
7 -13 75 68 40 5 -35 -14
7 -13 72 65 38 5 -35 -13
7 -12 70 62 36 5 -35 -12
7 -12 68 60 34 5 -35 -11
6 -11 65 57 32 4 -35 -10
6 -9 64 55 31 4 -35 -10
6 -7 63 53 30 4 -34 -10
7 -5 62 51 29 4 -33 -10
7 -3 61 48 28 4 -32 -10
8 0 59 46 27 5 -31 -9
7 0 56 43 25 5 -31 -9
6 0 53 39 22 5 -31 -8
5 -2 50 36 19 5 -31 -7
4 -2 46 32 17 5 -31 -6
2 -3 43 29 14 4 -30 -5
1 -4 40 28 14 3 -30 -5
-2 -6 38 26 13 2 -30 -5
-4 -7 36 24 12 1 -30 -5
-6 -9 34 22 11 0 -30 -5
-8 -11 31 20 10 -3 -30 -5
-7 -9 30 19 9 -3 -30 -5
-6 -7 29 17 7 -3 -30 -4
-4 -5 28 15 6 -3 -30 -4
-3 -3 27 13 4 -3 -30 -3
0 0 26 11 2 -2 -30 -2
0 -2 25 10 1 -2 -30 -2
-2 -3 23 8 0 -3 -30 -3
-2 -4 22 6 -2 -4 -30 -3
-3 -5 20 4 -3 -5 -30 -4
-4 -7 18 2 -4 -6 -30 -5
-4 -7 18 2 -4 -6 -28 -5
-4 -7 18 1 -5 -6 -26 -4
-4 -7 17 1 -6 -6 -24 -3
-4 -7 17 0 -7 -6 -22 -2
-4 -6 16 -2 -8 -7 -20 0
-4 -6 16 -2 -8 -7 -20 0
-4 -6 16 -2 -8 -7 -19 0
-4 -6 16 0 -8 -7 -19 0
-4 -6 16 0 -8 -7 -18 0
-5 -6 15 1 -8 -8 -17 -2
-5 -6 15 1 -8 -8 -16 -2
-5 -6 15 1 -8 -8 -15 -2
-4 -7 15 1 -8 -7 -14 -2
-4 -7 15 1 -8 -7 -13 -2
-3 -8 16 1 -9 -6 -11 -2
-3 -7 16 2 -9 -6 -11 -2
-3 -6 16 3 -9 -6 -10 -3
-3 -4 16 4 -8 -7 -10 -3
-3 -3 16 5 -8 -7 -9 -4
-3 0 17 6 -7 -8 -8 -5
-3 0 18 7 -6 -7 -7 -5
-3 0 19 8 -4 -6 -5 -4
-3 0 20 9 -3 -5 -3 -4
-3 0 21 10 0 -4 0 -3
-4 -2 23 11 2 -2 2 -2
-3 2 24 12 3 0 2 -2
0 5 25 13 4 1 3 -2
1 8 26 14 6 2 3 0
3 11 27 15 7 3 4 0
5 14 28 17 9 4 5 1
4 13 28 17 9 4 5 1
3 12 28 17 9 4 5 1
2 11 28 17 9 4 5 1
1 10 28 17 9 4 5 1
-2 8 29 16 9 4 5 1
-2 8 28 16 9 4 5 1
-2 8 27 16 9 3 5 1
-2 8 26 15 9 3 5 1
-2 8 25 15 9 2 5 1
-3 8 23 14 9 1 4 1
-3 9 21 13 8 1 4 1
-3 10 19 12 7 2 5 2
-3 11 17 11 6 2 6 3
-3 12 15 10 5 3 7 4
-2 13 13 8 4 4 8 5
0 14 12 8 4 4 8 5
2 16 11 8 4 4 8 5
3 17 10 7 4 4 8 6
5 19 9 7 4 4 8 6
7 21 8 6 3 4 7 7
7 21 8 6 3 4 7 7
7 20 7 6 3 4 8 8
7 19 6 5 3 5 8 9
7 18 5 5 3 5 9 10
6 17 4 4 2 6 10 11
6 16 4 4 2 6 10 11
6 15 4 4 2 6 10 10
7 14 4 4 2 6 10 10
7 13 4 4 2 6 10 9
8 11 4 4 2 7 9 8
7 9 4 3 1 5 8 7
5 7 4 2 0 3 6 5
3 5 4 1 -2 1 4 4
1 3 4 0 -3 -2 2 2
-2 0 4 -2 -5 -5 0 0
-2 -2 4 -2 -5 -5 -2 0
-2 -4 3 -3 -5 -5 -3 0
-2 -6 3 -4 -5 -6 -4 -2
-2 -8 2 -5 -5 -6 -5 -2
-3 -10 1 -6 -6 -7 -6 -3
-3 -11 1 -7 -6 -7 -6 -4
-3 -12 0 -8 -7 -8 -7 -5
-4 -13 -2 -9 -8 -8 -7 -6
-4 -14 -3 -10 -9 -9 -8 -7
-5 -15 -4 -11 -10 -10 -9 -8
-5 -15 -4 -11 -10 -10 -9 -8
-5 -14 -4 -11 -10 -10 -9 -8
-4 -13 -4 -11 -10 -10 -9 -8
-4 -12 -4 -11 -10 -10 -9 -8
-3 -11 -4 -10 -9 -10 -8 -9
-3 -11 -4 -10 -9 -10 -8 -9
-2 -11 -4 -10 -9 -10 -8 -9
-2 -10 -4 -10 -9 -9 -8 -9
0 -10 -4 -10 -9 -9 -8 -9
1 -9 -5 -9 -10 -8 -9 -9
3 -10 -5 -7 -8 -7 -9 -9
6 -11 -5 -4 -5 -6 -8 -9
9 -12 -5 0 -3 -4 -7 -9
12 -13 -5 3 1 -3 -6 -9
15 -15 -6 6 4 0 -5 -8
16 -9 -6 12 14 12 4 0
18 -2 -6 19 24 24 13 7
19 6 -6 25 34 37 21 14
21 13 -6 32 45 50 30 20
22 19 -6 38 55 62 38 27
32 31 -17 42 71 88 57 40
43 43 -28 45 88 112 74 53
53 54 -38 47 104 137 92 65
63 65 -50 50 120 161 109 77
73 76 -60 52 137 186 127 90
76 101 -79 40 139 205 147 109
78 126 -99 27 141 224 167 129
81 150 -118 14 142 243 186 147
84 175 -138 1 144 262 205 167
86 199 -157 -12 145 280 225 185
66 197 -190 -86 63 215 192 171
44 193 -224 -160 -21 147 158 154
22 189 -257 -234 -105 79 123 138
1 185 -289 -308 -188 12 90 121
-21 182 -322 -383 -272 -57 55 105
-28 143 -325 -397 -299 -93 22 78
-35 103 -327 -411 -323 -129 -10 52
-43 64 -330 -426 -349 -163 -43 25
-50 25 -332 -439 -374 -199 -74 -2
-56 -15 -335 -453 -399 -235 -107 -28
-57 -17 -298 -406 -361 -217 -106 -33
-58 -19 -260 -357 -320 -196 -103 -37
-59 -21 -221 -307 -280 -176 -100 -41
-60 -23 -182 -258 -240 -156 -97 -46
-60 -24 -143 -208 -199 -136 -95 -50
-55 -24 -121 -179 -174 -118 -86 -48
-49 -23 -101 -150 -147 -102 -76 -45
-41 -22 -79 -121 -121 -85 -68 -40
-35 -21 -59 -92 -96 -68 -59 -37
-29 -20 -37 -63 -69 -51 -51 -34
-26 -20 -29 -53 -60 -45 -47 -31
-23 -21 -22 -44 -51 -38 -43 -29
-21 -23 -15 -33 -41 -32 -38 -27
-18 -24 -8 -23 -33 -26 -34 -25
-16 -25 0 -14 -24 -20 -30 -23
-14 -26 3 -10 -20 -17 -28 -22
-13 -26 6 -6 -16 -15 -27 -22
-12 -26 9 -2 -13 -13 -26 -22
-11 -26 12 3 -9 -11 -25 -22
-10 -26 14 6 -6 -9 -24 -22
-9 -26 15 8 -4 -8 -23 -21
-9 -25 16 10 -2 -7 -22 -21
-8 -24 17 12 1 -6 -21 -21
-8 -23 18 14 3 -5 -20 -21
-8 -22 19 15 5 -5 -20 -21
-7 -21 21 17 6 -4 -19 -20
-6 -22 23 19 7 -4 -19 -20
-6 -22 24 20 8 -3 -19 -20
-5 -23 26 22 9 -3 -19 -20
-5 -23 27 23 10 -3 -19 -20
-4 -24 28 24 12 0 -19 -19
-4 -24 29 25 13 1 -18 -18
-4 -24 29 25 15 2 -17 -18
-4 -24 30 26 16 3 -16 -17
-4 -24 30 26 17 4 -16 -17
-5 -27 31 27 18 5 -16 -16
-8 -29 31 28 18 4 -17 -17
-10 -31 31 29 18 3 -19 -18
-13 -33 31 30 18 2 -20 -19
-15 -35 31 30 18 1 -21 -19
-15 -36 31 33 18 0 -22 -20
-13 -35 33 35 20 1 -21 -20
-11 -34 34 37 22 2 -20 -20
-9 -33 36 39 24 3 -19 -20
-7 -32 37 42 25 3 -18 -20
-6 -31 39 45 27 4 -17 -19
-6 -31 42 48 29 5 -17 -19
-5 -30 44 50 31 5 -17 -19
-5 -30 46 53 33 6 -17 -19
-5 -30 48 55 34 6 -17 -19
-4 -29 49 57 36 7 -17 -18
-4 -29 50 59 38 8 -17 -18
-4 -29 51 61 40 9 -16 -18
-4 -29 52 63 43 10 -16 -18
-4 -29 53 64 44 10 -16 -18
-3 -29 56 67 46 11 -15 -17
-2 -29 58 70 48 11 -15 -17
-2 -29 61 72 50 12 -15 -17
0 -29 63 75 52 12 -15 -17
0 -29 65 77 53 12 -15 -17
1 -28 66 79 55 14 -15 -18
1 -28 67 81 56 15 -14 -18
1 -28 67 82 57 16 -13 -17
1 -28 68 85 58 17 -12 -17
1 -28 68 86 59 18 -11 -17
3 -28 70 88 60 19 -10 -16
4 -26 72 90 61 20 -10 -16
6 -25 74 92 62 20 -10 -16
7 -23 76 94 63 21 -10 -16
8 -22 77 96 64 21 -10 -16
9 -21 78 97 65 22 -10 -17
8 -22 78 97 64 21 -10 -17
7 -23 78 96 63 21 -10 -17
6 -24 78 96 62 20 -10 -17
6 -24 78 96 62 20 -10 -17
5 -25 77 94 60 19 -9 -16
5 -26 76 93 59 18 -9 -16
4 -27 76 91 57 18 -9 -16
4 -28 75 90 56 17 -9 -16
4 -28 75 89 55 17 -9 -16
3 -27 73 86 53 16 -10 -15
3 -25 72 84 51 15 -10 -15
2 -23 71 81 49 14 -10 -16
2 -21 70 79 47 13 -10 -16
2 -19 69 77 45 12 -10 -16
0 -19 67 74 42 10 -11 -17
-3 -21 66 71 39 8 -12 -17
-4 -23 64 68 37 7 -13 -17
-6 -25 63 66 34 5 -14 -17
-7 -27 62 63 32 4 -15 -17
-8 -27 60 61 31 3 -15 -17
-7 -26 59 59 30 3 -14 -16
-6 -25 57 57 30 4 -13 -15
-5 -24 56 55 29 4 -12 -14
-5 -23 55 53 29 4 -11 -13
-4 -22 53 51 27 5 -10 -12
-4 -22 51 48 25 5 -9 -12
-4 -21 49 46 24 5 -8 -12
-4 -21 47 44 22 5 -7 -12
-4 -21 46 42 21 5 -7 -12
-5 -19 44 38 20 5 -6 -11
-5 -17 42 36 19 5 -6 -10
-4 -15 39 34 18 5 -5 -9
-4 -13 37 31 17 5 -5 -8
-4 -12 36 29 17 5 -5 -8
-3 -11 35 27 15 4 -4 -7
-3 -11 34 25 14 4 -3 -6
-3 -11 33 23 13 4 -3 -5
-3 -11 32 21 12 4 -2 -4
-3 -11 31 20 11 4 -2 -3
-4 -11 28 17 9 4 0 -2
-4 -11 26 15 7 3 0 -2
-5 -11 24 12 5 2 0 -2
-5 -11 21 9 3 1 0 -2
-5 -11 19 7 2 1 0 -2
-6 -10 18 5 0 0 -2 -3
-6 -9 17 4 -2 -2 -2 -3
-6 -9 17 3 -3 -2 -3 -2
-6 -8 16 2 -4 -3 -3 -2
-6 -8 16 1 -5 -3 -3 -2
-5 -7 15 0 -6 -4 -4 0
-5 -8 14 0 -6 -4 -4 0
-6 -8 13 0 -6 -4 -4 0
-6 -9 12 0 -6 -4 -4 0
-6 -9 12 0 -6 -4 -4 0
-6 -9 11 -2 -7 -4 -3 0
-3 -7 12 0 -7 -4 -3 1
0 -5 13 1 -7 -3 -2 1
2 -3 14 2 -7 -3 -2 2
4 0 14 3 -7 -3 -2 2
5 1 15 4 -7 -2 0 3
4 0 15 4 -7 -2 0 3
3 -2 14 4 -7 -3 -2 2
2 -3 14 4 -7 -3 -2 2
2 -4 14 4 -7 -3 -2 2
-2 -7 13 3 -8 -4 -3 1
-4 -9 13 3 -8 -4 -4 0
-7 -11 12 3 -8 -5 -5 -2
-10 -14 12 3 -8 -5 -6 -3
-12 -16 12 3 -8 -5 -7 -3
-13 -16 12 3 -8 -6 -8 -4
-12 -14 13 4 -7 -5 -7 -4
-11 -12 15 6 -5 -4 -7 -4
-10 -10 17 8 -3 -3 -6 -4
-9 -8 18 9 -2 -3 -6 -4
-8 -6 20 11 1 0 -5 -3
-8 -5 21 12 3 1 -5 -2
-7 -4 22 14 5 2 -4 -2
-7 -3 23 15 7 3 -4 0
-7 -2 24 16 9 4 -4 0
-6 0 25 17 10 5 -3 1
-6 1 25 17 10 6 -2 1
-6 2 26 17 10 6 0 1
-6 3 26 17 10 7 1 1
-6 4 26 17 10 7 2 1
-5 5 27 18 11 8 3 2
-4 6 27 18 11 8 3 3
-3 7 26 18 11 8 3 4
0 8 26 18 11 8 3 5
1 8 26 18 11 8 3 6
2 9 23 17 10 8 4 7
2 9 20 15 9 8 5 7
1 9 16 13 8 7 5 7
1 9 13 11 6 7 6 7
1 9 10 9 5 7 6 7
0 9 9 8 4 6 7 8
1 10 9 8 4 6 8 8
1 10 9 8 4 6 8 8
2 11 9 8 4 6 9 8
2 11 9 8 4 6 9 8
4 13 9 9 3 7 10 9
5 15 8 9 3 7 11 10
6 17 7 8 3 8 11 10
7 18 6 8 3 8 12 11
8 20 6 8 3 8 12 11
9 20 5 7 4 9 13 12
9 18 5 7 4 9 13 12
9 16 6 7 4 8 12 12
9 14 6 7 4 8 12 12
9 12 6 7 4 8 12 12
7 9 7 6 2 6 9 11
6 6 7 5 1 4 7 8
4 3 6 3 -2 2 5 6
2 0 6 1 -4 0 2 4
1 -4 6 0 -5 -3 0 2
-2 -6 5 -2 -6 -4 -3 0
-3 -8 4 -3 -7 -5 -4 -2
-5 -10 3 -4 -7 -6 -5 -3
-7 -11 2 -5 -8 -7 -6 -4
-8 -13 1 -5 -8 -8 -7 -5
-9 -14 0 -6 -9 -9 -8 -6
-7 -14 0 -7 -9 -9 -8 -6
-6 -14 -2 -7 -9 -8 -8 -5
-5 -14 -2 -8 -9 -8 -8 -5
-4 -14 -2 -8 -9 -8 -8 -5
-3 -15 -3 -9 -8 -7 -8 -4
-3 -14 -3 -8 -8 -7 -7 -4
-3 -13 -3 -7 -8 -7 -6 -4
-3 -12 -3 -6 -8 -7 -5 -4
-3 -12 -3 -6 -8 -7 -4 -4
-3 -12 -2 -6 -9 -8 -4 -4
-4 -15 -4 -7 -10 -9 -6 -5
-5 -17 -5 -9 -11 -10 -8 -6
-7 -20 -6 -11 -12 -11 -9 -7
-8 -22 -7 -12 -13 -11 -11 -7
-7 -23 -8 -10 -12 -11 -12 -8
-3 -23 -8 -7 -9 -9 -10 -8
2 -23 -8 -3 -5 -6 -9 -8
5 -23 -8 2 -2 -4 -8 -8
9 -23 -8 6 2 -2 -7 -8
14 -15 -7 13 13 11 3 0
19 -6 -6 20 25 25 14 9
24 4 -6 28 37 38 25 18
29 14 -5 35 51 53 36 28
34 23 -5 44 63 67 48 37
43 33 -9 47 77 88 64 49
51 44 -17 48 93 111 81 60
60 54 -24 50 108 134 98 71
69 64 -32 52 122 156 115 82
78 75 -39 53 138 179 132 94
81 99 -60 42 141 198 151 112
82 127 -85 25 140 216 171 131
85 153 -108 10 139 233 190 150
87 181 -133 -7 138 252 211 170
88 207 -156 -22 137 269 230 189
71 209 -187 -87 66 215 203 179
49 200 -220 -161 -20 142 165 159
26 193 -253 -237 -107 69 127 141
4 185 -285 -312 -194 -4 89 122
-19 178 -318 -388 -280 -76 50 103
-28 145 -325 -409 -313 -115 18 78
-34 106 -324 -418 -331 -146 -13 51
-40 67 -324 -425 -350 -177 -44 24
-47 28 -323 -433 -369 -207 -74 -3
-52 -12 -323 -441 -388 -238 -105 -29
-54 -21 -294 -405 -360 -230 -111 -37
-55 -24 -257 -356 -320 -210 -108 -40
-56 -26 -219 -308 -280 -189 -106 -44
-57 -29 -182 -260 -240 -169 -103 -48
-58 -31 -145 -211 -200 -148 -101 -51
-53 -29 -120 -178 -172 -130 -92 -49
-46 -26 -98 -149 -145 -111 -79 -44
-37 -22 -76 -119 -119 -93 -68 -38
-29 -18 -54 -91 -94 -75 -57 -33
-21 -14 -32 -62 -68 -57 -46 -29
-19 -15 -23 -49 -57 -49 -41 -27
-19 -19 -18 -40 -50 -44 -38 -26
-19 -23 -13 -32 -41 -38 -36 -25
-19 -26 -8 -24 -34 -33 -33 -24
-19 -30 -3 -16 -27 -28 -31 -23
-20 -31 2 -12 -23 -25 -30 -22
-20 -32 4 -8 -19 -24 -30 -22
-20 -33 7 -4 -15 -22 -29 -22
-20 -34 10 1 -11 -20 -29 -22
-20 -34 13 5 -7 -19 -29 -22
-19 -35 14 7 -5 -17 -27 -22
-17 -33 16 9 -3 -16 -26 -21
-16 -32 17 10 1 -14 -25 -20
-15 -31 18 12 3 -12 -23 -19
-14 -30 19 14 5 -11 -22 -19
-13 -29 21 16 7 -10 -21 -18
-12 -29 22 17 8 -10 -21 -18
-12 -29 23 19 10 -10 -20 -18
-11 -29 25 21 12 -10 -20 -18
-11 -29 26 22 13 -10 -20 -18
-10 -28 27 23 14 -9 -19 -17
-9 -28 28 25 16 -7 -18 -16
-9 -28 28 26 17 -6 -17 -15
-8 -28 29 27 18 -5 -16 -14
-8 -28 29 28 19 -4 -16 -14
-7 -29 30 30 20 -3 -15 -14
-7 -29 31 31 20 -3 -17 -15
-7 -28 32 32 21 -3 -18 -16
-7 -28 33 34 21 -3 -19 -18
-7 -28 33 35 21 -3 -20 -19
-8 -27 34 37 22 -4 -21 -20
-7 -27 35 38 23 -3 -20 -20
-7 -26 36 40 24 -2 -19 -19
-6 -26 37 43 25 0 -18 -19
-6 -26 38 44 25 1 -17 -19
-5 -25 40 46 27 2 -16 -18
-4 -25 43 49 30 2 -16 -17
-3 -25 44 51 32 2 -16 -17
-2 -25 46 54 35 2 -16 -16
-2 -25 48 56 37 2 -16 -16
0 -24 50 58 39 3 -15 -15
2 -23 51 60 42 4 -15 -15
3 -23 53 62 44 5 -14 -15
4 -22 55 64 46 6 -14 -15
5 -22 56 66 48 6 -14 -15
6 -21 58 68 50 7 -13 -15
6 -22 59 70 51 8 -13 -15
5 -23 60 72 53 9 -13 -14
5 -24 62 74 54 9 -13 -14
5 -25 63 76 56 10 -13 -14
4 -26 65 78 57 11 -12 -13
4 -26 66 81 58 12 -12 -14
4 -27 68 85 59 13 -12 -14
4 -27 69 87 60 13 -12 -15
4 -27 71 90 61 14 -12 -15
5 -28 73 92 62 15 -12 -16
6 -27 75 94 63 16 -12 -16
6 -26 76 95 63 16 -12 -16
7 -25 78 97 64 17 -12 -16
7 -24 80 99 64 17 -12 -16
8 -23 80 99 64 18 -13 -16
7 -23 79 98 63 18 -13 -16
6 -23 78 97 61 17 -13 -17
5 -23 76 95 60 17 -13 -17
4 -23 75 94 58 17 -13 -17
3 -24 74 93 57 16 -12 -18
4 -23 74 92 57 16 -12 -17
5 -23 74 92 56 17 -11 -16
5 -22 74 91 56 17 -11 -15
6 -22 74 91 56 17 -11 -14
7 -21 74 89 54 17 -10 -13
7 -21 73 86 51 16 -10 -13
8 -21 72 82 48 14 -11 -13
8 -21 71 80 46 13 -11 -13
8 -21 70 77 43 11 -11 -13
9 -20 69 75 40 10 -12 -12
8 -19 67 73 39 9 -13 -12
7 -19 66 71 37 8 -13 -13
7 -18 65 68 36 7 -14 -13
6 -18 64 66 34 6 -14 -13
5 -17 62 63 32 5 -15 -14
5 -17 60 60 30 5 -15 -13
5 -16 58 57 28 5 -14 -12
5 -16 56 54 26 5 -14 -12
5 -16 54 51 24 5 -14 -11
6 -15 53 49 23 5 -13 -10
6 -13 51 47 21 4 -13 -10
5 -12 50 46 20 3 -13 -10
5 -11 49 44 19 3 -13 -10
5 -10 48 42 18 2 -13 -10
4 -9 46 39 16 1 -12 -10
4 -9 44 36 15 1 -12 -8
4 -10 42 34 13 1 -11 -7
4 -10 39 32 12 1 -11 -6
4 -10 37 29 10 1 -11 -5
5 -11 35 27 9 2 -10 -4
5 -10 33 25 7 2 -10 -4
5 -10 31 23 6 1 -10 -4
5 -9 29 20 5 1 -10 -4
5 -9 27 18 4 1 -10 -4
4 -8 26 16 3 0 -9 -3
4 -7 24 14 1 0 -9 -3
4 -6 23 12 0 0 -8 -3
4 -5 21 9 -3 0 -8 -3
4 -4 20 7 -4 0 -8 -3
3 -3 19 6 -5 -2 -7 -3
3 -4 18 4 -6 -4 -7 -3
2 -5 17 3 -7 -5 -7 -3
2 -6 16 2 -8 -6 -7 -3
2 -7 15 1 -9 -7 -7 -3
1 -8 14 0 -10 -8 -8 -4
1 -7 14 0 -11 -8 -8 -4
2 -6 13 0 -11 -8 -8 -4
2 -6 13 0 -12 -8 -8 -4
2 -5 13 0 -12 -8 -8 -4
3 -4 12 -2 -13 -9 -7 -4
5 -3 12 0 -12 -8 -7 -4
6 -2 13 0 -12 -7 -6 -4
7 0 13 1 -11 -7 -6 -4
8 1 13 1 -11 -6 -6 -4
8 1 14 2 -10 -5 -5 -4
6 0 12 1 -12 -7 -7 -5
4 -3 11 0 -13 -8 -8 -6
2 -4 10 -2 -15 -10 -9 -7
0 -6 9 -3 -16 -11 -10 -8
-2 -7 9 -3 -16 -12 -11 -9
0 -7 11 0 -14 -10 -9 -8
0 -7 13 2 -13 -9 -8 -7
1 -7 16 4 -11 -8 -7 -7
1 -7 18 6 -9 -7 -6 -6
2 -6 19 7 -8 -6 -5 -5
2 -4 20 8 -6 -5 -4 -5
2 -2 21 9 -5 -4 -4 -4
2 2 21 10 -4 -3 -3 -4
2 4 22 11 -3 -2 -3 -4
3 5 23 12 -2 0 -2 -3
2 5 24 13 0 1 -2 -3
1 4 24 14 1 1 -2 -3
1 4 25 15 2 2 -2 -3
0 4 25 16 3 2 -2 -3
-2 4 26 17 4 3 -3 -2
1 7 27 18 5 4 -2 0
2 9 27 18 6 4 0 1
3 12 28 19 7 5 1 1
4 15 28 19 8 5 2 2
5 15 28 19 9 6 3 3
3 13 26 18 7 6 3 3
2 12 24 16 6 6 3 3
0 10 22 15 5 6 3 3
-2 8 20 13 4 6 3 3
-3 8 18 12 3 5 4 3
0 9 17 11 3 5 4 4
1 11 15 10 2 5 4 5
3 12 13 10 1 5 4 5
4 14 11 9 1 5 4 6
5 16 10 8 0 4 4 7
6 17 10 8 0 5 6 8
8 19 9 8 1 6 7 9
9 21 9 8 2 7 9 9
10 23 9 8 2 8 10 10
11 24 8 9 3 9 11 11
11 23 7 8 2 9 11 11
11 22 6 7 1 9 11 11
11 22 6 6 1 9 11 11
11 21 5 5 0 9 11 11
11 19 4 4 -2 8 11 11
10 17 4 4 -2 7 10 10
9 15 5 4 -2 6 9 9
9 12 6 4 -2 6 9 8
8 10 6 4 -2 5 8 7
6 7 7 4 0 3 6 5
4 4 7 3 -2 2 4 3
1 0 6 1 -3 0 2 1
-2 -5 5 -2 -4 -3 0 -3
-5 -8 5 -4 -5 -5 -3 -5
-6 -10 4 -5 -6 -6 -4 -6
-6 -10 3 -5 -6 -6 -5 -6
-5 -9 2 -6 -7 -7 -6 -6
-4 -9 2 -7 -8 -8 -6 -6
-4 -9 1 -7 -8 -8 -7 -6
-3 -8 0 -8 -9 -9 -8 -7
-3 -9 0 -8 -9 -9 -8 -7
-3 -10 0 -8 -9 -9 -7 -6
-3 -11 0 -8 -9 -9 -7 -6
-3 -12 0 -8 -9 -9 -7 -6
-4 -13 -2 -9 -9 -9 -6 -5
-3 -12 -2 -9 -9 -9 -6 -5
-2 -11 -2 -9 -9 -8 -6 -5
-2 -11 -2 -9 -9 -8 -6 -5
0 -10 -2 -9 -9 -8 -6 -5
1 -9 -3 -9 -8 -7 -6 -6
1 -10 -3 -9 -8 -7 -6 -6
1 -11 -4 -9 -8 -6 -5 -5
1 -12 -5 -9 -8 -5 -4 -5
1 -13 -5 -9 -8 -5 -4 -5
4 -14 -6 -6 -4 -2 -2 -4
7 -13 -4 1 3 3 1 -2
10 -12 -3 7 9 8 3 0
13 -11 0 13 15 12 5 2
16 -10 1 19 21 16 7 3
23 -2 -2 25 34 31 18 11
31 11 -6 31 51 53 35 24
39 23 -11 37 66 74 53 36
48 35 -16 44 82 96 69 49
56 48 -21 49 99 117 87 62
64 63 -33 48 112 139 105 76
72 79 -50 40 121 161 125 91
79 96 -66 34 132 183 144 106
88 113 -83 27 142 205 163 121
96 130 -100 20 152 227 182 137
92 147 -122 -8 134 228 190 147
80 164 -148 -50 96 213 190 154
69 182 -174 -91 59 198 190 161
57 199 -200 -132 21 183 190 170
46 217 -226 -173 -16 169 190 177
30 203 -251 -226 -77 116 161 160
12 171 -275 -286 -154 40 112 129
-7 137 -300 -348 -230 -34 63 98
-25 104 -324 -408 -306 -110 14 66
-44 70 -349 -469 -383 -186 -35 34
-52 47 -344 -474 -399 -217 -62 12
-53 29 -318 -441 -377 -219 -74 -4
-55 13 -293 -408 -355 -221 -87 -19
-57 -5 -267 -376 -332 -223 -100 -34
-59 -22 -241 -343 -310 -226 -112 -51
-60 -29 -215 -306 -280 -213 -112 -56
-58 -30 -186 -267 -246 -188 -103 -54
-56 -31 -157 -227 -212 -164 -94 -51
-55 -31 -129 -188 -177 -140 -85 -49
-53 -32 -100 -149 -143 -115 -75 -46
-48 -32 -79 -121 -118 -98 -67 -43
-41 -28 -64 -102 -101 -85 -60 -39
-34 -25 -50 -83 -83 -72 -53 -35
-27 -22 -35 -64 -66 -59 -46 -32
-20 -19 -20 -45 -48 -47 -37 -28
-17 -17 -12 -33 -37 -38 -34 -26
-15 -19 -7 -26 -32 -34 -32 -25
-13 -21 -3 -20 -26 -31 -30 -24
-12 -22 2 -13 -20 -27 -29 -23
-10 -24 7 -7 -15 -23 -27 -22
-9 -25 9 -3 -11 -20 -26 -21
-9 -25 11 0 -8 -19 -25 -20
-9 -25 13 3 -5 -17 -24 -19
-9 -25 14 5 -2 -15 -24 -18
-9 -25 16 8 1 -13 -23 -17
-8 -26 17 10 4 -12 -22 -16
-7 -26 19 11 6 -11 -21 -16
-6 -25 20 13 8 -10 -20 -16
-6 -25 22 15 10 -10 -19 -16
-5 -25 23 17 12 -9 -18 -16
-4 -24 24 18 14 -8 -17 -16
-4 -24 24 20 15 -7 -17 -16
-3 -24 25 21 17 -5 -17 -16
-2 -24 26 23 19 -4 -17 -16
-2 -24 26 24 21 -3 -17 -16
0 -24 28 25 22 -2 -16 -15
0 -24 29 26 22 -2 -16 -15
1 -23 31 28 23 -2 -16 -15
2 -22 33 29 24 -2 -16 -15
2 -22 35 30 24 -2 -16 -15
3 -21 36 31 25 -2 -15 -15
3 -22 36 32 25 -2 -15 -15
2 -23 36 34 26 0 -14 -16
2 -24 36 35 27 0 -14 -16
2 -25 36 36 27 0 -14 -16
2 -26 38 38 29 2 -13 -17
4 -25 40 43 31 3 -12 -16
6 -23 43 46 33 5 -10 -14
8 -22 45 49 35 7 -9 -13
11 -21 47 52 38 9 -8 -12
12 -20 48 54 39 10 -7 -11
10 -20 48 54 39 10 -8 -12
9 -20 48 55 40 10 -9 -13
8 -20 48 56 40 10 -9 -14
6 -20 48 56 40 10 -10 -15
5 -21 50 58 43 10 -11 -16
4 -22 52 61 45 10 -11 -16
2 -23 54 64 47 10 -11 -16
1 -23 56 66 49 10 -11 -16
0 -24 59 69 52 10 -11 -16
-2 -25 61 72 54 9 -10 -17
1 -25 62 75 57 11 -10 -17
2 -24 64 78 59 12 -9 -17
3 -24 66 80 62 13 -8 -17
5 -24 68 84 64 15 -8 -17
6 -23 70 87 66 16 -7 -16
6 -23 71 89 66 16 -7 -16
6 -23 73 91 67 17 -7 -16
6 -23 75 93 68 18 -7 -16
6 -23 77 95 68 18 -7 -16
6 -24 78 96 69 19 -6 -15
6 -24 78 96 70 20 -6 -15
7 -23 78 97 72 21 -5 -16
7 -22 78 98 73 22 -5 -16
7 -22 78 98 74 23 -5 -16
8 -21 79 99 75 24 -4 -17
8 -21 79 99 73 23 -4 -16
8 -20 79 99 71 21 -4 -15
8 -19 79 99 70 20 -4 -15
8 -19 79 99 68 19 -4 -14
8 -18 79 98 67 18 -4 -13
8 -18 78 96 66 18 -4 -13
9 -18 77 95 65 18 -4 -13
10 -18 76 94 65 18 -4 -13
10 -18 75 92 64 18 -4 -13
11 -18 74 90 62 19 -3 -14
11 -17 73 87 59 17 -3 -14
10 -16 72 84 57 16 -3 -13
10 -15 71 80 54 15 -3 -12
10 -14 70 77 52 13 -3 -12
9 -13 69 74 50 12 -4 -11
9 -13 67 72 48 12 -4 -11
9 -12 65 69 46 11 -5 -12
9 -12 64 66 44 11 -5 -12
9 -12 62 64 42 11 -5 -12
8 -11 61 61 40 10 -6 -13
8 -10 60 59 39 10 -5 -11
9 -9 59 56 37 10 -4 -10
9 -8 58 54 36 10 -3 -9
9 -7 57 52 35 10 -2 -7
9 -6 55 49 33 9 0 -6
7 -8 51 45 31 8 0 -6
5 -9 48 42 28 7 -2 -7
3 -10 45 38 25 6 -2 -7
1 -12 40 34 23 5 -2 -7
0 -13 37 32 21 4 -3 -8
0 -11 35 30 20 4 -3 -8
0 -10 33 28 19 4 -2 -7
0 -9 31 27 18 4 -2 -6
0 -7 29 25 17 4 -2 -6
0 -6 28 23 16 4 0 -5
0 -6 27 21 14 4 0 -5
0 -7 26 18 12 3 0 -4
0 -8 25 15 10 2 0 -4
0 -8 24 13 8 2 0 -4
1 -9 23 10 7 1 1 -3
0 -9 22 8 5 0 1 -3
-2 -8 20 6 3 -2 0 -4
-3 -8 19 4 1 -3 -2 -5
-4 -8 18 2 -2 -4 -2 -5
-5 -7 17 0 -3 -5 -3 -6
-5 -6 16 -2 -3 -5 -3 -6
-5 -5 14 -3 -4 -5 -4 -7
-5 -4 13 -4 -5 -5 -5 -7
-5 -3 12 -5 -5 -5 -5 -7
-5 -2 11 -6 -6 -6 -6 -8
-5 -3 11 -6 -6 -6 -6 -8
-5 -4 11 -7 -7 -7 -6 -8
-5 -4 11 -7 -8 -8 -6 -8
-5 -5 11 -7 -8 -8 -6 -8
-5 -6 10 -8 -9 -9 -7 -7
-5 -6 10 -8 -9 -9 -7 -7
-5 -6 10 -7 -9 -8 -6 -7
-5 -6 10 -6 -9 -8 -6 -7
-5 -6 10 -6 -9 -8 -6 -7
-6 -7 9 -5 -8 -7 -5 -7
-6 -7 10 -5 -8 -7 -5 -7
-6 -7 11 -4 -7 -6 -5 -7
-6 -7 12 -3 -6 -6 -5 -7
-6 -7 13 -3 -6 -6 -5 -7
-6 -5 14 -2 -5 -5 -5 -6
-4 -3 15 1 -4 -5 -5 -6
-3 1 16 3 -3 -5 -4 -6
-2 4 17 5 0 -4 -3 -5
1 6 18 7 1 -4 -3 -5
3 9 20 8 3 -3 -2 -4
5 12 22 10 5 0 0 -3
8 14 24 12 7 2 1 -2
11 17 27 14 10 4 3 0
13 20 29 16 12 6 4 1
13 20 31 18 14 8 5 2
9 16 29 17 13 6 3 0
5 11 27 16 12 5 2 -2
0 6 25 14 11 4 0 -3
-5 2 23 13 10 2 -3 -5
-8 -2 22 12 9 1 -4 -6
-8 1 22 12 9 1 -3 -5
-7 2 22 12 9 1 -2 -4
-6 4 21 11 9 2 0 -2
-6 6 21 11 9 2 1 0
-5 7 20 10 10 3 2 1
-4 8 18 10 10 3 2 1
-3 9 16 9 9 3 2 1
0 11 14 8 8 3 2 2
1 12 12 8 8 3 2 2
2 13 10 7 7 4 3 3
2 15 9 6 6 4 3 3
2 16 9 6 6 4 3 3
1 17 8 5 5 4 3 3
1 19 7 4 4 4 3 3
0 20 6 3 3 3 4 4
1 20 6 3 3 4 5 5
2 20 6 3 3 4 5 6
4 19 7 4 4 5 6 7
5 19 7 4 4 6 7 8
6 18 8 5 5 7 8 9
6 16 8 5 5 6 8 9
6 14 7 4 4 5 8 9
5 12 6 3 3 4 7 8
5 10 6 3 3 3 7 8
4 8 5 2 2 2 6 7
2 5 5 2 2 2 4 5
1 2 6 2 2 2 3 4
-2 -3 7 2 2 1 1 2
-4 -6 7 2 2 1 -2 0
-5 -8 8 1 1 0 -3 -2
-5 -9 6 -2 -2 -3 -4 -3
-5 -10 5 -4 -4 -5 -5 -3
-6 -11 4 -6 -6 -7 -6 -4
-6 -12 2 -8 -8 -9 -7 -5
-7 -13 1 -10 -10 -10 -8 -6
-7 -13 1 -10 -10 -10 -8 -6
-7 -13 1 -10 -9 -10 -8 -6
-6 -12 1 -10 -8 -9 -7 -6
-6 -12 1 -10 -8 -9 -7 -6
-5 -11 0 -9 -7 -8 -6 -6
-5 -12 0 -9 -8 -9 -7 -6
-5 -13 0 -10 -9 -10 -8 -6
-6 -14 0 -11 -10 -11 -10 -6
-6 -15 0 -11 -11 -12 -11 -6
-7 -16 -2 -12 -12 -13 -12 -7
-5 -15 -2 -12 -12 -12 -10 -7
-4 -14 -2 -11 -11 -11 -9 -6
-3 -13 -2 -10 -10 -10 -8 -5
0 -12 -2 -10 -10 -9 -6 -5
1 -11 -3 -8 -8 -8 -5 -4
2 -13 -4 -5 -6 -8 -5 -4
2 -15 -4 -2 -4 -8 -4 -4
3 -17 -5 2 0 -8 -3 -4
4 -18 -6 5 2 -8 -3 -4
7 -16 -7 10 10 1 5 0
13 -6 -7 18 24 19 18 9
19 4 -7 26 39 37 32 18
24 14 -7 33 54 56 46 27
30 24 -7 42 68 74 60 36
37 34 -15 46 82 95 75 48
45 47 -30 40 95 117 93 60
53 58 -47 36 107 140 110 73
60 69 -63 31 119 161 129 86
67 80 -79 27 132 184 146 98
72 99 -99 16 137 201 163 113
72 127 -120 -4 130 213 183 132
72 154 -143 -23 122 224 201 150
73 181 -165 -43 116 235 221 169
73 209 -187 -63 109 246 239 186
65 216 -213 -105 66 220 231 187
44 194 -241 -179 -25 142 183 160
22 174 -271 -253 -116 63 136 135
0 152 -301 -326 -207 -16 89 108
-22 131 -329 -399 -298 -94 42 82
-37 105 -345 -442 -354 -149 3 57
-43 74 -340 -441 -362 -172 -24 33
-49 44 -333 -440 -369 -194 -51 9
-55 13 -327 -438 -378 -217 -77 -15
-60 -17 -322 -437 -386 -239 -103 -39
-64 -35 -303 -415 -373 -243 -117 -54
-63 -34 -265 -365 -332 -222 -110 -55
-63 -33 -227 -315 -291 -199 -104 -56
-62 -32 -190 -265 -249 -178 -98 -57
-61 -31 -152 -215 -208 -155 -91 -58
-58 -30 -121 -175 -175 -135 -83 -57
-51 -29 -102 -148 -150 -118 -73 -52
-44 -27 -81 -121 -126 -101 -64 -47
-36 -26 -62 -95 -101 -83 -55 -41
-29 -24 -41 -68 -76 -66 -46 -36
-25 -23 -27 -49 -59 -54 -38 -33
-22 -23 -20 -39 -50 -49 -35 -31
-20 -23 -13 -30 -40 -43 -31 -29
-17 -23 -6 -21 -31 -37 -28 -27
-15 -23 1 -12 -23 -32 -25 -26
-13 -24 7 -5 -16 -27 -22 -24
-11 -24 9 0 -11 -24 -21 -23
-9 -24 12 4 -6 -21 -19 -23
-7 -23 14 8 -2 -18 -18 -22
-5 -23 17 12 4 -14 -16 -21
-3 -22 19 15 7 -12 -15 -20
-4 -22 19 15 7 -13 -16 -20
-6 -22 19 15 7 -13 -16 -20
-7 -22 19 16 8 -14 -17 -21
-9 -22 19 16 8 -15 -18 -21
-10 -21 18 18 9 -16 -19 -22
-9 -22 21 20 12 -14 -18 -22
-9 -22 23 23 14 -12 -17 -22
-8 -23 26 25 17 -10 -16 -21
-7 -24 28 28 19 -9 -15 -21
-6 -25 30 30 21 -7 -14 -20
-7 -26 30 30 21 -7 -14 -20
-7 -28 30 30 21 -7 -14 -20
-8 -29 30 30 21 -7 -13 -19
-9 -31 30 30 21 -7 -13 -19
-10 -32 29 32 20 -7 -12 -18
-9 -31 32 35 22 -6 -12 -18
-8 -30 34 38 24 -6 -12 -18
-6 -28 36 42 26 -5 -11 -18
-5 -27 38 45 28 -4 -11 -18
-4 -26 40 47 30 -3 -10 -17
-4 -26 40 48 30 -3 -10 -17
-5 -26 40 48 30 -3 -10 -17
-6 -26 40 49 30 -3 -10 -17
-6 -26 40 50 30 -3 -10 -17
-7 -25 42 52 31 -2 -9 -18
-6 -25 44 54 34 0 -9 -18
-5 -25 46 57 36 1 -9 -18
-3 -25 48 59 39 2 -9 -19
-2 -25 49 62 42 3 -9 -19
0 -26 51 65 44 4 -10 -20
0 -26 53 67 46 5 -10 -20
0 -26 55 70 48 5 -10 -20
0 -26 57 73 50 6 -9 -19
0 -26 59 76 52 7 -9 -19
1 -26 61 79 55 8 -8 -18
2 -26 64 82 58 10 -8 -18
3 -26 66 87 61 12 -8 -18
5 -26 69 90 64 14 -7 -19
6 -26 71 93 67 16 -7 -19
7 -26 73 96 69 18 -6 -20
7 -25 73 98 70 18 -5 -19
7 -24 74 100 71 19 -5 -19
7 -22 75 102 73 20 -4 -18
7 -21 75 103 74 20 -3 -17
7 -20 76 105 75 21 -2 -16
8 -20 79 107 75 21 -2 -16
10 -20 82 109 76 21 -2 -16
11 -19 85 111 77 22 -2 -15
13 -19 88 113 77 22 -2 -15
14 -17 90 115 78 23 0 -14
17 -14 91 116 78 24 2 -13
20 -11 91 116 79 26 4 -12
22 -8 92 117 80 27 6 -10
25 -5 93 118 80 29 7 -9
25 -4 93 118 80 29 9 -8
20 -10 90 114 77 26 6 -10
14 -15 87 110 73 23 4 -13
8 -20 84 105 70 20 1 -15
2 -25 80 101 67 17 -2 -17
-3 -29 77 98 64 15 -4 -19
0 -26 77 97 63 15 -3 -18
2 -24 77 95 61 15 -3 -16
4 -21 76 94 60 15 -2 -15
5 -19 76 92 58 15 0 -13
7 -17 75 91 57 15 1 -12
7 -17 74 89 56 15 1 -12
7 -16 74 86 54 15 1 -12
7 -15 73 84 53 14 2 -12
7 -15 72 81 51 14 2 -12
7 -14 71 78 49 13 3 -12
7 -14 68 74 46 12 3 -12
6 -14 65 71 43 11 3 -12
5 -14 62 67 39 10 3 -12
5 -14 59 63 36 9 3 -12
4 -14 57 60 34 8 3 -11
4 -13 55 57 33 8 3 -11
4 -13 54 55 32 8 3 -11
4 -12 52 52 30 8 4 -11
4 -11 51 50 29 8 4 -11
4 -10 49 48 28 8 5 -10
4 -10 46 45 26 8 5 -9
4 -9 43 42 24 8 5 -8
4 -8 40 38 22 8 6 -6
4 -8 37 35 20 8 6 -5
3 -7 35 33 18 7 7 -4
3 -6 33 30 16 6 7 -5
3 -4 31 28 14 6 6 -5
3 -3 29 25 12 5 5 -6
3 0 27 23 11 4 5 -7
2 1 25 21 9 3 4 -8
2 0 23 18 7 2 4 -7
1 -2 22 16 5 1 4 -5
1 -3 20 14 4 0 4 -4
0 -5 19 11 2 -2 4 -2
-2 -6 17 9 0 -3 5 0
-2 -6 17 8 0 -3 5 0
-2 -6 16 7 -2 -3 5 -2
-2 -6 16 6 -2 -3 5 -2
-2 -6 15 4 -3 -3 5 -3
-3 -7 14 3 -4 -3 5 -4
-3 -5 14 2 -5 -4 5 -4
-3 -3 14 2 -6 -4 5 -4
-2 -2 13 1 -7 -5 4 -3
-2 1 13 0 -8 -6 4 -3
0 3 12 -2 -9 -7 3 -2
-2 0 12 -2 -9 -7 2 -2
-2 -3 12 -2 -9 -7 2 -3
-3 -5 12 -2 -9 -8 1 -3
-4 -8 12 -2 -9 -8 0 -4
-5 -10 13 -2 -10 -9 -2 -5
-4 -7 13 -2 -10 -8 -2 -5
-3 -4 13 0 -10 -8 0 -5
-2 0 14 0 -9 -7 0 -4
1 3 14 1 -9 -6 1 -4
2 5 15 2 -8 -5 2 -3
0 4 15 2 -8 -5 1 -4
-2 2 15 2 -8 -5 1 -5
-4 1 15 2 -9 -5 0 -6
-5 -2 15 2 -9 -5 -2 -7
-7 -3 14 1 -10 -6 -3 -8
-7 -2 16 4 -7 -5 -2 -7
-6 -2 18 6 -5 -4 0 -6
-6 0 20 8 -3 -3 1 -5
-5 1 22 11 1 -2 3 -4
-4 2 24 13 3 0 4 -3
-4 2 25 14 3 0 4 -3
-4 2 26 14 3 1 4 -2
-4 3 27 15 4 1 4 -2
-4 3 28 16 4 2 4 0
-3 4 29 17 5 3 4 1
-3 6 29 17 5 3 4 1
-3 9 28 17 5 3 4 1
-2 11 28 16 6 3 4 1
-2 13 27 16 6 3 4 1
0 15 26 15 7 3 5 0
0 16 24 14 7 3 5 0
1 16 22 13 7 3 5 0
1 17 21 12 6 4 5 1
2 18 19 11 6 4 5 1
3 19 17 10 5 5 6 2
3 18 17 10 5 5 7 2
3 18 16 10 5 5 8 3
3 17 16 10 4 6 9 3
3 16 15 10 4 6 11 4
3 15 14 10 3 7 12 5
4 17 14 10 3 7 12 6
5 20 14 10 3 8 12 6
6 22 13 10 3 8 12 7
8 24 13 10 3 9 12 8
9 26 12 9 3 10 11 9
10 26 12 9 3 10 11 9
11 26 11 9 3 10 11 10
12 25 11 8 3 9 12 10
13 25 10 8 3 9 12 11
14 24 9 7 2 8 13 12
13 23 9 7 2 7 11 9
13 22 9 7 2 6 8 7
12 21 9 6 2 5 6 5
11 20 9 6 2 4 4 2
10 18 10 5 1 3 2 0
8 14 9 4 0 0 1 -2
6 10 7 2 -2 -3 0 -3
4 6 6 1 -3 -5 -2 -4
2 2 5 0 -5 -8 -3 -5
0 -2 3 -3 -6 -10 -4 -6
-2 -5 3 -4 -7 -10 -5 -6
-4 -8 2 -5 -8 -10 -6 -6
-5 -11 2 -6 -9 -11 -7 -7
-6 -14 1 -8 -11 -11 -8 -7
-8 -17 0 -9 -12 -12 -9 -8
-8 -17 -2 -10 -12 -12 -9 -8
-7 -16 -2 -10 -12 -12 -9 -8
-7 -16 -3 -11 -12 -12 -9 -8
-6 -15 -4 -12 -12 -12 -9 -8
-5 -14 -5 -13 -13 -11 -9 -7
-5 -14 -5 -13 -13 -11 -9 -7
-5 -14 -5 -13 -13 -11 -9 -7
-5 -15 -5 -12 -12 -11 -9 -7
-5 -15 -5 -12 -12 -11 -9 -7
-5 -16 -5 -11 -11 -10 -9 -6
-2 -16 -5 -9 -9 -9 -9 -6
1 -16 -6 -8 -7 -8 -9 -6
3 -16 -6 -6 -6 -7 -9 -6
6 -16 -7 -5 -4 -6 -9 -6
9 -15 -8 -2 1 -3 -7 -6
13 -8 -7 7 11 8 2 1
17 0 -5 14 21 19 9 7
21 7 -4 21 31 29 17 13
25 14 -3 28 42 39 24 19
30 22 -4 34 53 53 34 27
38 32 -17 34 68 77 53 39
47 43 -30 35 84 102 70 52
55 54 -44 35 99 126 89 65
63 64 -58 36 114 150 106 77
70 77 -73 35 128 174 126 92
75 102 -93 24 136 195 146 110
81 127 -113 13 143 217 167 129
87 150 -134 2 151 238 188 146
92 175 -154 -10 158 260 209 164
93 193 -178 -34 147 263 219 178
74 193 -207 -100 72 206 192 172
55 193 -237 -164 -3 150 164 165
36 194 -267 -230 -77 93 138 158
17 194 -297 -295 -152 36 110 152
1 186 -321 -351 -220 -19 80 140
-9 148 -329 -380 -263 -69 42 106
-19 109 -338 -408 -306 -120 2 72
-28 70 -346 -437 -350 -171 -37 39
-37 31 -354 -465 -393 -222 -76 6
-46 1 -353 -477 -419 -258 -107 -21
-47 -5 -316 -430 -381 -240 -108 -28
-48 -11 -279 -384 -344 -224 -110 -36
-49 -16 -243 -337 -306 -207 -111 -44
-51 -21 -206 -289 -269 -191 -112 -51
-51 -26 -173 -246 -233 -174 -112 -57
-46 -24 -148 -213 -202 -154 -103 -52
-39 -22 -122 -180 -173 -135 -94 -48
-34 -19 -98 -146 -142 -114 -83 -44
-29 -17 -73 -113 -112 -95 -74 -39
-24 -15 -52 -85 -87 -78 -65 -35
-21 -15 -41 -71 -74 -69 -60 -32
-18 -16 -32 -58 -63 -60 -55 -29
-15 -17 -22 -45 -52 -52 -50 -26
-12 -18 -12 -31 -39 -43 -45 -23
-9 -19 -4 -21 -29 -35 -40 -20
-9 -22 1 -16 -25 -32 -40 -20
-10 -25 5 -12 -20 -30 -40 -20
-11 -28 9 -7 -16 -27 -40 -21
-12 -30 13 -3 -11 -25 -40 -21
-13 -33 16 2 -7 -22 -40 -22
-12 -32 16 3 -5 -22 -38 -22
-10 -30 17 4 -3 -21 -37 -21
-9 -28 18 5 0 -20 -35 -20
-8 -27 19 6 2 -19 -33 -19
-6 -25 20 7 4 -18 -31 -18
-6 -25 22 10 7 -16 -31 -18
-5 -24 24 13 9 -15 -31 -18
-4 -24 26 16 12 -13 -31 -18
-3 -23 28 18 14 -11 -31 -18
-2 -22 30 21 17 -9 -31 -17
-2 -22 31 21 17 -9 -31 -17
-2 -22 32 22 17 -9 -31 -17
-2 -23 33 23 17 -9 -31 -17
-2 -23 34 24 17 -9 -31 -17
0 -24 35 25 16 -9 -31 -17
0 -24 36 27 17 -8 -31 -17
1 -24 37 29 19 -7 -31 -17
2 -24 38 32 20 -6 -31 -16
3 -24 40 34 21 -5 -31 -16
4 -25 42 36 23 -4 -30 -15
4 -25 42 37 24 -4 -30 -15
4 -24 43 39 25 -4 -30 -15
4 -23 43 40 26 -3 -30 -15
4 -22 44 42 27 -3 -30 -15
4 -21 45 44 28 -2 -31 -15
4 -22 47 47 30 -2 -31 -15
4 -23 50 50 32 -2 -31 -15
4 -24 52 53 35 0 -31 -15
4 -25 55 56 37 0 -31 -15
5 -26 57 59 39 1 -31 -15
5 -25 58 61 42 2 -31 -15
5 -24 60 63 44 3 -31 -15
6 -23 62 65 46 4 -30 -15
6 -22 63 67 48 6 -30 -15
7 -21 65 69 50 7 -29 -15
8 -20 68 74 54 9 -29 -15
10 -19 70 78 58 11 -29 -14
12 -18 73 82 62 14 -28 -13
13 -17 75 87 65 16 -28 -12
15 -16 78 91 69 18 -27 -11
15 -16 79 91 69 18 -27 -11
14 -17 81 92 69 17 -27 -12
14 -18 84 93 70 17 -28 -12
13 -19 85 94 70 16 -28 -13
12 -20 87 95 71 15 -29 -14
12 -20 88 99 73 16 -29 -14
11 -21 90 102 75 18 -29 -13
11 -21 92 106 78 20 -28 -13
10 -22 93 110 80 21 -28 -12
9 -23 95 113 82 23 -27 -11
9 -23 95 113 82 23 -27 -11
8 -23 95 113 82 23 -27 -11
8 -23 94 112 81 23 -27 -11
7 -23 94 112 81 23 -27 -11
6 -24 93 111 80 23 -27 -10
6 -23 93 111 80 23 -27 -10
7 -22 93 111 80 23 -27 -10
7 -21 94 110 79 22 -28 -10
8 -20 94 110 79 22 -28 -10
9 -19 95 109 78 21 -29 -9
9 -19 93 106 77 21 -29 -9
9 -19 91 103 75 21 -29 -9
8 -19 89 100 73 21 -29 -9
8 -19 86 97 72 21 -29 -9
7 -19 84 94 70 21 -28 -9
7 -19 82 91 67 19 -28 -9
7 -18 80 89 64 17 -29 -9
7 -17 79 86 60 15 -29 -9
7 -16 78 84 57 13 -30 -9
6 -15 76 80 54 11 -31 -8
6 -15 74 77 52 11 -31 -7
6 -14 72 74 50 11 -31 -6
6 -13 70 71 48 10 -30 -5
6 -12 68 68 46 10 -30 -4
5 -11 66 65 44 9 -29 -3
5 -11 64 62 42 9 -30 -3
5 -11 62 59 39 8 -31 -4
5 -11 60 55 37 8 -32 -4
5 -11 57 52 35 7 -33 -5
4 -10 55 49 33 6 -34 -6
4 -9 53 46 32 6 -33 -6
4 -8 50 43 30 6 -32 -5
4 -7 48 40 28 6 -31 -4
4 -6 46 37 27 6 -30 -3
5 -4 43 34 25 7 -29 -2
5 -4 40 32 24 7 -29 0
5 -4 39 29 22 6 -29 1
4 -4 37 27 21 6 -28 2
4 -4 35 25 20 5 -28 3
3 -4 33 22 18 4 -27 4
3 -4 31 20 16 4 -27 4
3 -3 29 17 13 3 -27 4
4 -3 27 14 11 3 -28 4
4 -2 24 12 9 2 -28 4
5 0 22 9 6 1 -29 4
6 1 22 9 6 1 -29 4
7 2 22 8 5 1 -29 4
8 3 22 7 5 1 -28 5
9 4 22 6 4 1 -28 5
11 6 22 5 3 1 -27 6
6 1 18 1 0 -2 -29 4
1 -5 15 -3 -4 -5 -31 1
-5 -10 11 -7 -7 -8 -33 -2
-9 -14 8 -10 -10 -10 -36 -4
-14 -19 4 -14 -13 -13 -38 -7
-12 -16 5 -14 -13 -13 -36 -7
-9 -13 6 -13 -12 -12 -34 -6
-7 -9 7 -12 -11 -12 -32 -6
-5 -6 8 -11 -10 -11 -29 -5
-2 -3 9 -10 -9 -10 -27 -4
-3 -4 9 -10 -9 -10 -26 -4
-4 -5 9 -10 -10 -10 -25 -4
-5 -6 8 -10 -10 -10 -23 -4
-6 -7 8 -10 -11 -10 -22 -4
-7 -8 7 -11 -12 -10 -20 -3
-7 -8 9 -9 -11 -10 -20 -3
-7 -7 11 -7 -9 -10 -19 -3
-7 -7 13 -5 -7 -9 -18 -3
-7 -6 15 -3 -6 -9 -17 -3
-6 -5 17 0 -4 -8 -16 -2
-6 -4 18 1 -3 -7 -13 0
-5 -3 19 2 -2 -6 -11 1
-5 0 20 3 0 -5 -8 2
-4 1 21 4 1 -4 -5 3
-3 3 22 5 2 -2 -2 4
-3 3 23 7 3 0 0 4
-3 3 24 8 5 1 1 4
-3 3 26 10 6 2 2 4
-3 3 27 12 8 3 3 4
-2 3 29 14 10 4 5 3
-2 4 29 14 10 4 5 3
-2 5 29 14 10 4 6 3
-2 6 28 14 10 4 7 2
-2 7 28 14 10 4 8 2
-2 9 27 14 11 5 9 1
-2 10 27 14 11 5 9 2
-2 11 26 14 11 5 9 3
0 12 26 13 11 6 10 4
0 13 25 13 11 6 10 5
1 14 24 12 10 7 11 7
2 14 23 11 10 7 11 7
3 13 21 10 10 7 11 7
5 13 19 9 10 6 11 7
6 12 17 8 10 6 11 7
8 11 15 7 10 5 11 7
11 17 15 8 10 5 11 7
14 23 15 9 10 6 12 8
17 29 16 10 10 7 12 9
21 34 16 11 10 8 13 10
24 40 17 12 11 9 14 11
21 36 15 11 10 9 14 11
18 31 13 9 8 9 13 10
15 27 11 8 6 9 13 9
11 22 8 6 4 9 12 8
8 18 6 4 2 9 11 7
7 14 6 4 2 8 10 7
5 9 6 4 2 6 9 6
4 5 6 3 1 5 8 6
2 0 6 3 1 3 7 5
0 -5 7 2 0 1 5 4
0 -5 7 1 0 0 4 3
0 -5 6 0 -2 -2 2 1
0 -6 5 -2 -3 -3 0 0
0 -6 4 -3 -4 -4 -3 -3
1 -7 3 -4 -5 -5 -5 -5
0 -9 2 -5 -6 -6 -6 -6
-3 -12 1 -7 -8 -8 -7 -7
-4 -14 -2 -8 -9 -10 -9 -8
-6 -16 -3 -10 -11 -12 -10 -9
-8 -19 -5 -12 -13 -14 -12 -11
-8 -19 -5 -12 -13 -14 -11 -10
-8 -18 -5 -12 -12 -13 -10 -9
-7 -17 -5 -12 -12 -12 -9 -8
-7 -16 -5 -12 -11 -11 -8 -7
-6 -15 -6 -12 -10 -10 -7 -6
-6 -15 -6 -12 -10 -11 -8 -7
-6 -15 -5 -12 -11 -12 -9 -8
-6 -15 -5 -12 -11 -13 -11 -10
-6 -15 -4 -12 -12 -14 -12 -11
-5 -16 -3 -13 -13 -15 -14 -13
-4 -17 -4 -13 -13 -14 -13 -12
-3 -18 -5 -13 -12 -13 -11 -10
0 -19 -6 -13 -12 -11 -10 -8
1 -20 -7 -13 -11 -10 -8 -6
3 -21 -8 -14 -10 -8 -6 -4
6 -18 -6 -6 0 0 -3 -2
9 -16 -4 2 8 6 2 1
12 -13 -2 10 17 13 6 3
15 -10 1 17 26 19 9 5
18 -7 4 25 35 27 14 7
25 6 -7 26 51 50 30 20
31 17 -17 28 66 71 47 33
38 29 -27 29 81 94 63 46
45 42 -36 31 97 115 79 59
52 54 -48 33 111 138 97 72
59 73 -68 27 122 161 117 88
66 92 -89 21 133 185 137 103
73 111 -109 15 143 210 157 119
80 131 -131 8 154 233 178 135
88 149 -151 0 162 255 197 150
80 165 -179 -47 117 235 192 154
73 182 -206 -94 73 216 188 159
67 198 -234 -140 28 195 183 164
60 215 -262 -186 -16 176 178 169
52 229 -289 -233 -63 152 170 173
34 192 -309 -290 -139 73 115 140
16 154 -329 -348 -214 -6 60 107
-3 117 -349 -406 -289 -85 6 74
-21 79 -369 -464 -365 -164 -50 42
-38 44 -388 -517 -436 -239 -102 10
-45 25 -356 -477 -408 -239 -114 -5
-51 7 -324 -437 -380 -238 -126 -19
-57 -12 -293 -397 -352 -237 -137 -33
-63 -30 -261 -358 -324 -236 -149 -47
-69 -48 -229 -318 -296 -234 -160 -61
-66 -43 -198 -277 -259 -206 -150 -57
-62 -36 -168 -236 -223 -179 -140 -53
-58 -31 -137 -195 -187 -151 -129 -49
-54 -26 -106 -154 -150 -123 -118 -45
-50 -20 -76 -115 -115 -97 -108 -40
-44 -20 -64 -98 -99 -86 -103 -38
-36 -21 -51 -81 -83 -75 -98 -35
-30 -21 -38 -64 -68 -64 -93 -32
-24 -22 -25 -47 -52 -54 -88 -29
-17 -23 -13 -30 -36 -43 -82 -26
-17 -25 -8 -24 -30 -38 -81 -25
-16 -27 -3 -17 -25 -34 -80 -24
-16 -29 3 -11 -19 -30 -78 -23
-15 -31 8 -5 -13 -26 -77 -22
-14 -33 13 3 -7 -21 -75 -21
-13 -33 14 5 -5 -20 -75 -20
-11 -32 15 7 -2 -19 -75 -19
-10 -31 17 9 2 -18 -74 -18
-8 -30 18 11 5 -17 -74 -17
-6 -29 20 14 8 -15 -73 -16
-6 -29 21 15 10 -14 -73 -16
-6 -29 22 17 12 -13 -73 -16
-6 -29 24 19 14 -12 -73 -16
-6 -29 25 21 16 -11 -73 -16
-7 -28 27 23 18 -9 -73 -16
-7 -28 28 24 19 -9 -73 -16
-7 -28 29 25 20 -8 -73 -16
-6 -28 30 27 21 -8 -73 -17
-6 -28 31 28 22 -7 -73 -17
-5 -29 32 30 23 -6 -74 -18
-5 -29 33 31 23 -6 -74 -18
-5 -29 34 32 23 -6 -74 -18
-5 -29 35 34 24 -5 -74 -17
-5 -29 36 35 24 -5 -74 -17
-6 -29 38 37 25 -4 -74 -16
-6 -29 39 39 26 -4 -72 -16
-5 -29 42 42 27 -3 -70 -16
-5 -28 43 44 29 -3 -68 -16
-4 -28 45 46 30 -2 -66 -16
-3 -27 47 49 32 0 -64 -17
-2 -27 49 51 34 1 -63 -17
0 -26 51 54 36 2 -61 -16
1 -26 53 56 38 3 -60 -16
2 -25 55 59 40 4 -58 -15
4 -24 58 62 44 6 -56 -14
4 -24 59 64 46 7 -55 -14
4 -24 60 66 48 8 -54 -14
5 -23 61 68 51 9 -52 -14
5 -23 62 70 53 10 -51 -14
6 -22 63 73 56 12 -49 -15
4 -25 63 73 56 12 -49 -15
1 -28 63 74 56 11 -49 -15
-2 -31 64 75 57 10 -49 -16
-5 -34 64 76 57 9 -49 -16
-8 -38 65 77 58 8 -48 -17
-7 -37 68 81 61 9 -46 -17
-6 -36 71 86 64 11 -44 -17
-5 -35 75 91 68 12 -41 -17
-4 -34 78 95 71 14 -39 -17
-3 -33 82 100 75 16 -36 -18
-3 -33 84 102 76 17 -35 -18
-2 -32 86 104 78 18 -34 -18
0 -31 88 107 79 19 -32 -18
1 -30 90 109 81 20 -31 -18
1 -30 91 111 82 21 -30 -18
2 -29 92 112 84 22 -28 -18
3 -28 92 113 85 22 -26 -17
3 -28 92 114 86 22 -24 -16
4 -27 92 115 87 22 -22 -15
4 -27 92 116 87 22 -20 -14
5 -26 93 117 88 23 -19 -13
5 -26 93 117 87 23 -18 -13
5 -26 93 116 86 23 -17 -13
5 -26 93 116 85 23 -16 -13
5 -26 93 116 84 23 -15 -13
5 -26 93 113 81 24 -13 -13
5 -24 91 110 79 24 -12 -13
6 -22 89 107 78 23 -10 -13
6 -20 87 104 76 23 -9 -13
6 -19 85 102 75 23 -8 -13
7 -18 84 99 72 22 -7 -14
6 -18 82 97 70 21 -7 -14
5 -18 81 94 67 20 -6 -14
4 -18 80 92 65 19 -6 -14
3 -18 79 90 63 19 -6 -14
2 -19 76 86 60 17 -4 -14
2 -19 73 82 58 15 -3 -14
2 -18 71 78 55 13 0 -13
2 -18 68 75 53 11 1 -13
2 -18 66 72 51 10 2 -13
1 -16 64 69 49 9 4 -12
2 -15 63 66 47 9 6 -11
3 -14 61 64 46 9 8 -10
4 -13 60 61 44 9 10 -9
5 -12 59 59 43 9 11 -9
7 -9 56 56 42 8 14 -7
9 -7 53 53 40 9 17 -5
11 -5 51 51 39 10 19 -4
13 -3 48 48 38 11 22 -2
14 0 46 46 37 11 24 0
12 0 42 42 34 11 25 1
9 -3 38 37 31 10 25 0
5 -5 34 33 28 8 24 -2
2 -7 31 29 25 7 24 -3
-2 -9 28 25 23 6 24 -4
-3 -10 26 23 20 5 22 -5
-2 -9 25 21 18 4 21 -5
0 -8 23 19 16 3 19 -5
1 -7 22 17 14 2 18 -5
1 -6 21 15 12 2 17 -5
2 -5 20 13 11 1 16 -4
3 -5 19 12 10 1 16 -3
3 -4 18 11 9 1 15 -2
4 -4 17 10 8 1 15 0
4 -4 16 9 8 1 15 0
3 -4 13 6 5 -2 13 0
1 -6 11 3 2 -4 11 -2
-3 -7 8 0 0 -6 9 -4
-5 -9 6 -4 -4 -8 7 -5
-7 -10 4 -6 -6 -9 5 -6
-8 -11 3 -7 -7 -10 4 -7
-7 -11 3 -7 -7 -10 4 -7
-7 -11 3 -7 -7 -9 5 -6
-6 -11 3 -7 -7 -9 5 -6
-6 -11 3 -7 -7 -9 5 -6
-5 -9 4 -7 -6 -8 6 -5
-4 -8 4 -7 -6 -8 5 -5
-4 -7 4 -7 -7 -8 4 -5
-3 -6 4 -7 -7 -8 3 -5
-3 -5 4 -7 -7 -8 3 -5
-2 -4 4 -6 -8 -8 2 -5
-3 -4 5 -5 -8 -9 1 -6
-4 -3 7 -5 -9 -9 1 -6
-5 -3 8 -4 -9 -10 0 -7
-5 -3 9 -4 -9 -10 0 -7
-6 -2 11 -2 -8 -10 0 -7
-5 -2 12 1 -6 -8 2 -5
-4 -3 14 3 -4 -6 4 -3
-3 -3 15 5 -2 -4 6 0
-3 -3 16 7 1 -2 8 2
-2 -2 17 8 2 0 9 3
-2 2 18 9 3 0 9 2
-2 5 18 10 4 0 9 1
-2 8 19 11 5 0 9 0
-2 11 19 11 5 0 9 0
-2 12 20 12 6 1 8 -2
-2 11 21 13 7 2 8 -2
-2 10 22 13 8 3 8 0
-2 9 23 14 9 4 8 0
-2 9 24 14 10 5 8 0
0 8 25 15 11 6 9 1
1 9 25 15 11 6 8 1
1 10 25 16 11 5 8 1
2 11 25 16 11 5 7 1
2 12 25 16 11 5 7 1
3 14 24 16 12 4 6 2
4 16 22 14 11 4 6 2
4 18 19 13 11 4 6 2
5 20 17 11 10 4 6 2
5 21 15 10 10 4 6 2
6 22 14 9 9 5 6 3
6 22 14 9 9 5 6 3
6 22 13 9 9 5 6 4
6 22 13 9 9 5 6 4
6 22 13 9 9 5 6 4
5 21 12 10 8 5 6 5
5 20 11 9 8 5 6 6
4 19 11 8 7 5 7 7
4 18 10 7 7 5 7 8
4 17 10 7 7 5 7 8
3 16 9 6 6 5 8 9
2 15 8 5 5 4 7 8
2 15 7 4 4 3 7 7
1 14 6 3 3 2 6 6
1 14 5 3 2 2 6 6
0 10 4 2 1 1 5 4
-2 6 4 2 0 1 4 3
-3 2 4 1 0 0 3 2
-4 -3 4 1 -2 0 2 1
-4 -7 4 1 -2 0 1 0
-5 -8 3 -2 -4 -3 -2 -2
-5 -9 3 -3 -5 -5 -4 -3
-5 -9 2 -5 -7 -7 -5 -4
-5 -10 2 -6 -8 -9 -7 -5
-5 -10 2 -7 -9 -10 -8 -6
-6 -11 1 -8 -10 -11 -9 -7
-6 -12 0 -8 -10 -11 -9 -7
-6 -13 0 -9 -10 -11 -9 -7
-6 -14 -2 -9 -10 -11 -9 -7
-6 -14 -2 -9 -10 -11 -9 -7
-6 -15 -3 -10 -10 -10 -9 -6
-6 -15 -3 -11 -10 -10 -9 -6
-7 -16 -4 -11 -11 -11 -10 -7
-7 -16 -4 -12 -11 -11 -10 -7
-7 -16 -4 -12 -11 -11 -10 -7
-8 -17 -5 -13 -12 -12 -11 -8
-8 -17 -6 -13 -12 -12 -11 -8
-8 -16 -7 -13 -12 -12 -11 -8
-8 -16 -8 -13 -12 -12 -11 -8
-8 -16 -8 -13 -12 -12 -11 -8
-4 -15 -9 -9 -10 -8 -8 -7
1 -15 -8 -3 -6 -3 -6 -5
6 -15 -7 4 -2 2 -3 -3
10 -15 -6 11 3 7 1 -2
14 -15 -5 17 7 11 3 1
19 -5 -5 22 21 26 14 10
24 9 -6 28 36 43 26 19
29 21 -8 34 52 59 39 28
35 34 -9 39 67 75 52 37
40 47 -10 46 82 93 64 47
46 57 -29 45 96 115 81 59
52 67 -51 40 110 139 100 71
58 77 -72 37 123 162 117 82
63 88 -94 34 137 186 136 95
69 97 -115 31 151 210 153 107
71 122 -138 12 147 222 172 125
72 150 -160 -11 139 232 190 142
74 178 -183 -33 131 243 209 160
75 204 -206 -55 122 255 226 178
76 232 -229 -77 114 265 244 195
58 217 -257 -148 29 194 205 176
36 193 -286 -227 -68 111 157 148
14 170 -316 -305 -165 28 108 121
-9 146 -345 -383 -263 -56 60 95
-31 122 -374 -462 -360 -139 12 68
-37 93 -367 -469 -379 -168 -16 46
-41 62 -354 -465 -384 -188 -40 24
-45 31 -341 -461 -390 -208 -65 2
-49 1 -327 -456 -396 -229 -90 -20
-53 -29 -314 -452 -402 -249 -113 -43
-54 -33 -279 -404 -364 -232 -112 -47
-54 -32 -242 -350 -319 -208 -105 -48
-53 -31 -204 -296 -273 -184 -99 -50
-53 -30 -166 -240 -228 -159 -92 -52
-53 -29 -129 -186 -183 -136 -85 -53
-48 -27 -107 -156 -156 -119 -77 -51
-43 -25 -88 -131 -134 -104 -69 -47
-37 -23 -69 -106 -111 -89 -61 -41
-31 -22 -50 -80 -89 -73 -53 -37
-26 -20 -31 -55 -66 -59 -46 -33
-24 -21 -22 -44 -56 -52 -41 -31
-22 -23 -16 -35 -48 -46 -37 -28
-20 -26 -9 -26 -39 -40 -34 -26
-19 -29 -2 -17 -31 -34 -30 -24
-17 -31 6 -9 -24 -28 -27 -22
-16 -32 9 -5 -19 -25 -25 -21
-15 -31 11 0 -15 -23 -24 -21
-14 -31 13 3 -11 -21 -23 -22
-13 -30 14 7 -7 -18 -22 -22
-13 -30 16 10 -3 -16 -21 -22
-12 -29 18 12 0 -15 -20 -22
-11 -29 19 14 2 -14 -19 -21
-10 -29 20 16 4 -13 -18 -19
-9 -29 22 17 5 -12 -17 -17
-9 -29 23 19 7 -12 -17 -16
-7 -29 25 22 9 -10 -16 -15
-6 -28 27 24 12 -9 -15 -15
-5 -28 29 27 14 -8 -15 -15
-3 -27 30 29 16 -6 -14 -15
-2 -27 32 32 18 -5 -14 -15
0 -26 33 33 19 -4 -13 -16
-2 -25 34 34 19 -4 -13 -16
-3 -25 34 35 19 -4 -12 -16
-4 -24 35 36 19 -4 -12 -16
-5 -24 35 36 19 -4 -12 -16
-6 -23 37 39 21 -2 -11 -15
-5 -24 38 42 23 0 -11 -15
-4 -25 39 45 25 1 -10 -15
-3 -26 42 47 26 2 -10 -15
-3 -27 43 50 28 3 -10 -15
-3 -29 44 51 29 4 -9 -16
-5 -31 44 51 29 3 -10 -17
-7 -33 45 52 28 3 -11 -18
-9 -35 45 52 28 2 -12 -19
-11 -37 45 52 28 2 -12 -19
-12 -38 47 55 29 1 -13 -20
-11 -37 49 58 32 2 -13 -20
-10 -36 51 61 34 3 -13 -20
-9 -35 53 64 37 4 -13 -20
-9 -35 55 67 40 5 -13 -20
-8 -34 58 70 44 6 -13 -20
-7 -34 61 73 47 6 -12 -20
-6 -34 63 75 49 6 -11 -20
-5 -34 66 78 52 6 -10 -20
-5 -34 69 81 55 6 -10 -20
-4 -33 71 85 57 8 -9 -19
-4 -33 73 88 60 11 -8 -19
-4 -33 75 92 62 13 -8 -19
-4 -33 77 95 65 15 -7 -19
-4 -33 79 98 67 17 -7 -19
-3 -32 81 100 68 18 -6 -20
-3 -31 82 102 70 19 -6 -20
-2 -30 85 105 71 19 -6 -19
-2 -29 87 107 72 20 -6 -19
-2 -29 88 109 73 20 -6 -19
0 -28 90 111 75 21 -5 -18
1 -28 91 113 77 23 -5 -18
1 -29 93 116 79 24 -4 -17
2 -29 95 118 81 25 -4 -17
2 -29 96 120 84 26 -4 -17
3 -30 97 121 84 27 -3 -16
3 -29 97 119 82 26 -3 -16
3 -29 96 118 81 25 -3 -16
3 -28 96 117 79 24 -3 -16
3 -28 96 116 78 23 -3 -16
2 -27 95 115 77 22 -4 -17
2 -27 93 113 76 23 -4 -17
3 -27 92 112 75 23 -3 -16
3 -27 91 111 74 24 -3 -16
3 -27 90 110 74 24 -3 -16
4 -25 89 108 72 24 -2 -15
4 -23 88 105 70 22 -3 -14
4 -21 87 103 68 20 -4 -14
4 -19 86 100 66 18 -5 -13
4 -17 85 98 64 16 -5 -13
5 -14 84 96 63 15 -5 -12
9 -11 82 94 62 16 -4 -10
13 -9 81 92 61 17 -2 -9
16 -6 80 91 60 18 1 -8
20 -3 80 89 60 19 2 -7
16 -6 76 84 56 18 2 -7
8 -12 71 77 51 15 1 -8
1 -18 66 71 46 12 -2 -10
-8 -24 61 66 40 9 -4 -12
-15 -30 56 60 36 6 -5 -13
-15 -30 53 57 34 5 -6 -14
-13 -26 52 55 33 5 -5 -12
-10 -22 50 52 32 5 -5 -11
-8 -18 48 50 31 5 -4 -10
-5 -14 47 48 31 5 -4 -9
-4 -13 45 45 29 5 -3 -8
-4 -13 42 42 27 5 -2 -7
-4 -12 39 38 24 5 0 -6
-4 -12 36 35 22 5 1 -5
-4 -12 34 32 20 5 2 -4
-3 -11 32 29 18 6 3 -3
-4 -11 29 26 16 4 3 -3
-4 -11 27 23 14 3 3 -3
-5 -11 24 20 12 2 3 -3
-5 -11 22 17 10 1 3 -3
-6 -12 20 15 8 0 2 -4
-6 -12 19 13 6 0 2 -4
-6 -11 18 10 4 -2 2 -3
-6 -11 16 8 2 -2 2 -3
-6 -11 15 6 0 -2 2 -3
-7 -10 13 4 -2 -4 1 -2
-7 -10 11 2 -4 -5 0 -3
-7 -11 10 1 -5 -6 0 -3
-7 -11 8 -2 -6 -8 -2 -4
-7 -11 6 -4 -7 -9 -2 -4
-6 -12 5 -5 -8 -10 -3 -5
-6 -11 4 -6 -9 -10 -3 -5
-6 -11 4 -7 -10 -10 -3 -5
-6 -10 3 -8 -11 -10 -3 -5
-6 -10 3 -8 -12 -10 -3 -5
-7 -9 2 -9 -13 -10 -3 -6
-7 -10 2 -9 -13 -10 -3 -6
-7 -11 2 -9 -13 -10 -3 -6
-7 -12 2 -9 -13 -10 -3 -6
-7 -12 2 -9 -13 -10 -3 -6
-8 -12 2 -10 -13 -10 -4 -5
-7 -11 3 -9 -13 -10 -4 -5
-6 -9 4 -8 -13 -10 -3 -4
-5 -7 5 -7 -13 -10 -3 -4
-5 -6 5 -7 -13 -10 -3 -4
-4 -5 6 -5 -11 -9 -2 -3
-3 -4 8 -4 -10 -8 0 -2
-3 -3 9 -3 -9 -7 1 0
-2 -2 10 0 -7 -6 2 1
-2 0 11 1 -6 -6 2 1
-3 0 12 2 -5 -5 3 2
-6 -4 12 2 -5 -5 3 2
-9 -6 12 2 -5 -5 3 2
-12 -9 12 2 -5 -5 3 2
-15 -11 12 2 -5 -5 3 2
-15 -11 12 3 -3 -6 2 1
-13 -9 14 4 0 -5 2 1
-12 -8 15 5 1 -5 2 0
-10 -6 16 6 3 -4 2 0
-8 -4 17 7 5 -4 2 0
-7 -3 18 8 6 -3 2 -2
-7 0 20 9 6 -3 2 -2
-8 1 21 9 6 -3 2 -2
-8 2 22 10 6 -3 2 -2
-8 3 23 10 6 -3 2 -2
-9 4 24 11 7 -2 1 -2
-8 4 23 11 7 0 2 -2
-8 4 22 11 7 1 2 -3
-7 4 21 11 7 1 3 -3
-7 4 20 11 7 2 3 -3
-6 4 18 10 8 3 4 -3
-5 5 16 9 6 3 5 0
-4 7 15 9 5 3 5 1
-4 8 13 8 4 3 6 3
-3 10 11 8 3 3 6 5
-2 11 10 7 2 2 7 6
-2 11 10 7 3 3 7 7
-2 11 10 7 3 4 8 7
-2 11 10 7 4 4 8 8
-2 11 10 7 4 5 8 8
-3 11 9 6 5 6 9 9
-2 11 8 5 4 6 9 9
0 11 7 5 3 6 9 10
1 11 7 4 3 6 9 10
2 11 6 4 2 6 9 10
3 11 5 3 1 5 10 11
1 9 5 3 1 4 9 10
0 7 4 2 0 4 8 9
-2 5 4 2 0 3 8 8
-3 3 4 2 0 3 7 7
-4 0 3 0 -3 1 5 5
-5 -4 3 -2 -4 -2 2 3
-5 -7 3 -4 -6 -4 -2 1
-6 -10 3 -5 -7 -6 -4 -3
-6 -13 3 -7 -9 -8 -7 -5
-7 -14 2 -8 -10 -9 -8 -6
-6 -14 1 -8 -10 -9 -8 -6
-5 -13 1 -8 -10 -9 -9 -6
-5 -13 0 -8 -10 -9 -9 -6
-4 -13 0 -8 -10 -9 -9 -6
-3 -12 -2 -9 -10 -8 -10 -6
-3 -12 -2 -9 -10 -8 -10 -6
-3 -12 -2 -8 -10 -9 -9 -5
-3 -12 -2 -8 -10 -9 -9 -5
-3 -12 -2 -8 -10 -9 -9 -5
-5 -14 -4 -8 -11 -10 -9 -5
-8 -18 -6 -10 -13 -12 -10 -7
-12 -22 -8 -12 -14 -13 -12 -8
-15 -26 -10 -15 -16 -15 -13 -10
-19 -29 -12 -17 -17 -16 -15 -12
-19 -30 -13 -18 -18 -17 -16 -13
-17 -28 -13 -17 -17 -16 -16 -12
-15 -26 -12 -16 -16 -15 -15 -11
-12 -24 -12 -16 -15 -14 -15 -10
-10 -22 -12 -15 -14 -13 -15 -9
-8 -21 -11 -9 -8 -8 -11 -7
-5 -20 -9 -2 0 -3 -5 -5
-2 -20 -8 6 8 4 1 -3
2 -19 -7 13 16 10 6 0
5 -19 -6 20 23 16 12 2
10 -9 -9 25 37 32 24 11
17 5 -16 30 53 54 40 23
24 18 -22 34 69 76 57 35
31 31 -29 38 86 98 72 48
37 45 -35 43 102 119 89 60
45 60 -53 43 115 143 107 73
52 77 -73 38 129 167 126 89
59 95 -94 34 141 190 145 103
66 112 -114 30 154 214 164 117
73 129 -135 27 168 237 184 132
73 151 -160 -2 153 238 191 143
68 175 -187 -41 126 228 193 152
63 198 -214 -81 98 217 195 161
58 223 -241 -121 70 205 197 171
53 246 -268 -160 43 195 199 180
38 228 -294 -221 -30 135 167 162
19 189 -318 -289 -124 52 116 132
1 149 -342 -358 -219 -30 66 100
-19 110 -366 -427 -313 -113 16 69
-38 71 -391 -495 -406 -196 -34 38
-47 46 -380 -494 -422 -224 -59 18
-50 26 -350 -460 -399 -227 -73 2
-53 8 -321 -425 -376 -229 -87 -14
-56 -12 -291 -390 -353 -231 -100 -30
-59 -31 -263 -355 -330 -234 -113 -46
-58 -35 -231 -314 -297 -218 -112 -51
-54 -30 -198 -270 -259 -191 -103 -49
-49 -26 -164 -227 -220 -164 -94 -48
-45 -22 -132 -183 -182 -139 -85 -46
-39 -18 -99 -139 -144 -112 -75 -44
-35 -16 -78 -112 -119 -96 -68 -40
-30 -16 -63 -94 -102 -83 -62 -37
-26 -16 -48 -74 -85 -72 -56 -34
-22 -16 -33 -56 -67 -60 -50 -31
-18 -16 -18 -37 -50 -48 -44 -28
-16 -16 -10 -26 -39 -41 -39 -26
-15 -16 -6 -20 -33 -37 -38 -24
-14 -17 0 -13 -27 -33 -36 -23
-14 -17 4 -7 -21 -30 -35 -22
-13 -17 9 0 -16 -26 -33 -21
-12 -19 11 4 -12 -24 -32 -20
-12 -22 12 5 -10 -22 -31 -20
-12 -25 14 7 -7 -21 -30 -19
-12 -28 15 9 -5 -19 -29 -19
-12 -31 16 11 -2 -18 -28 -19
-12 -32 18 13 1 -17 -27 -18
-12 -32 19 14 2 -16 -27 -18
-12 -32 21 16 4 -15 -27 -18
-12 -32 23 18 6 -15 -27 -18
-12 -32 25 20 8 -14 -27 -18
-13 -33 26 21 9 -13 -28 -18
-13 -33 26 22 10 -13 -28 -18
-13 -33 27 23 12 -12 -28 -18
-13 -33 27 23 13 -12 -28 -18
-13 -33 27 24 14 -12 -28 -18
-13 -34 29 26 15 -11 -29 -19
-12 -33 30 28 15 -10 -29 -19
-11 -32 32 30 16 -9 -28 -18
-11 -32 34 33 17 -8 -28 -18
-10 -31 36 35 17 -7 -28 -18
-9 -30 37 37 18 -6 -27 -17
-9 -30 39 39 20 -5 -25 -17
-9 -31 40 43 21 -4 -24 -18
-9 -31 43 45 23 -4 -22 -18
-9 -31 44 48 24 -3 -21 -18
-8 -32 46 50 25 -2 -20 -19
-8 -30 47 52 26 -2 -20 -19
-7 -29 49 54 28 -2 -19 -19
-7 -27 51 57 29 -2 -18 -19
-7 -26 53 59 30 -2 -18 -19
-6 -25 55 61 32 -2 -16 -19
-6 -25 56 63 35 0 -15 -19
-6 -26 58 65 38 2 -13 -19
-6 -26 60 68 42 3 -11 -19
-6 -26 62 70 45 4 -9 -19
-5 -27 64 72 48 5 -8 -19
-4 -27 66 75 50 5 -7 -19
-3 -26 68 78 53 6 -6 -19
-3 -25 70 81 55 7 -6 -19
-2 -25 73 84 58 7 -5 -19
0 -24 75 87 60 9 -3 -19
1 -23 77 90 62 10 0 -19
3 -22 79 93 65 12 2 -18
4 -22 81 96 67 13 4 -18
5 -21 85 99 70 15 6 -18
6 -20 87 102 72 16 8 -17
6 -20 89 105 73 17 9 -17
6 -21 91 108 75 18 11 -16
6 -21 93 111 76 19 13 -15
6 -21 96 113 78 20 15 -15
6 -22 97 115 79 21 16 -14
5 -23 97 115 79 21 16 -15
4 -25 97 115 78 20 16 -16
3 -26 97 115 78 20 16 -17
2 -27 97 115 78 20 16 -18
1 -28 96 116 77 19 16 -19
1 -28 96 116 77 19 18 -18
1 -28 96 115 76 20 20 -17
1 -28 96 115 75 20 22 -17
1 -28 96 115 75 20 25 -16
1 -27 96 114 74 21 26 -15
3 -24 96 113 73 21 26 -14
5 -21 95 111 72 21 26 -13
7 -18 94 110 72 21 26 -12
10 -16 94 109 71 21 26 -11
10 -14 92 106 68 19 26 -10
8 -15 89 102 65 18 25 -10
6 -16 87 99 62 16 23 -10
4 -16 84 95 58 14 22 -10
1 -17 81 91 55 12 21 -10
0 -18 78 88 53 11 20 -11
0 -18 76 85 52 10 19 -11
-2 -17 74 81 51 9 18 -10
-2 -17 72 78 50 9 18 -10
-2 -17 69 76 49 8 17 -10
-3 -16 67 73 47 7 16 -9
-3 -16 65 70 45 7 16 -9
-3 -16 63 67 42 6 16 -8
-3 -16 61 64 39 5 16 -7
-3 -16 59 61 36 5 16 -7
-4 -16 57 58 34 4 17 -6
-4 -15 55 55 33 4 17 -6
-4 -14 52 52 31 4 17 -5
-4 -13 50 49 29 4 17 -4
-4 -12 47 47 27 4 17 -4
-3 -11 45 44 25 3 18 -3
-3 -9 42 40 24 3 18 -2
-2 -8 39 37 22 3 18 0
0 -6 36 34 20 3 18 0
0 -5 34 31 18 3 18 1
1 -4 31 28 17 3 19 2
1 -4 29 25 16 3 19 2
1 -4 27 22 14 2 20 3
1 -4 25 19 13 1 20 3
1 -4 22 17 12 1 20 3
1 -3 21 14 10 0 21 4
1 -3 19 12 8 -3 20 4
1 -2 17 9 5 -4 19 3
1 0 16 7 3 -6 19 2
1 0 14 4 0 -7 18 2
0 1 13 3 -2 -8 17 1
0 1 12 2 -3 -8 16 1
0 2 11 1 -4 -8 15 1
0 3 11 0 -4 -8 15 1
0 3 10 -2 -5 -8 14 1
0 4 9 -3 -6 -9 13 0
0 5 9 -3 -6 -9 13 0
1 7 9 -3 -6 -9 14 1
1 8 9 -3 -6 -9 14 2
1 9 9 -3 -6 -9 14 2
1 8 10 -3 -7 -10 15 3
-3 4 8 -5 -9 -11 13 3
-5 0 7 -6 -11 -12 11 2
-8 -5 5 -8 -12 -12 10 1
-10 -9 4 -9 -14 -13 8 1
-12 -10 3 -10 -15 -14 7 0
-10 -7 4 -9 -14 -13 7 0
-8 -4 5 -7 -13 -12 7 0
-7 0 6 -6 -12 -12 7 0
-5 3 7 -5 -11 -11 7 0
-4 5 8 -4 -10 -10 8 -2
-4 3 10 -3 -9 -10 8 0
-4 2 11 0 -7 -9 8 1
-4 1 12 1 -6 -8 8 1
-4 -2 14 2 -5 -8 8 2
-4 -2 15 3 -4 -7 9 3
-4 1 16 4 -4 -7 9 3
-4 3 17 5 -3 -7 9 3
-4 5 18 6 -2 -7 9 3
-4 7 19 7 -2 -7 9 3
-4 8 20 8 0 -7 8 4
-4 10 20 9 1 -7 8 4
-3 11 21 10 3 -6 7 4
-2 12 21 10 4 -6 6 4
-2 14 21 11 5 -6 6 4
0 15 22 12 6 -5 5 3
0 15 22 12 6 -5 5 3
0 15 22 12 7 -4 6 3
0 15 22 12 7 -4 7 3
0 15 22 12 7 -4 7 3
0 16 21 12 8 -3 8 4
0 17 19 10 8 -3 8 4
1 18 16 9 7 -3 9 5
1 18 14 8 7 -3 9 5
1 19 12 6 7 -3 9 5
2 20 10 5 6 -2 10 6
2 21 10 5 6 -2 10 6
3 23 10 5 6 -2 10 7
3 24 10 5 6 -2 10 8
3 25 10 5 6 -2 10 8
4 26 11 6 5 -2 10 9
5 25 10 6 5 -2 10 10
7 24 9 6 5 0 11 11
8 23 8 6 5 1 12 11
9 22 7 6 5 1 12 12
10 21 6 5 5 2 13 13
11 21 6 4 5 2 13 13
13 21 5 3 4 1 12 13
14 21 4 3 3 0 11 13
15 21 4 2 3 0 11 13
15 19 3 1 2 -2 10 11
13 16 3 1 1 -3 8 9
10 13 4 0 0 -4 6 6
7 11 4 0 -2 -5 4 4
5 8 4 0 -3 -6 2 2
2 4 5 -2 -4 -7 1 0
0 0 4 -4 -6 -7 -2 -2
-3 -5 2 -6 -7 -8 -4 -4
-5 -9 1 -7 -8 -9 -5 -5
-7 -14 0 -9 -10 -9 -7 -6
-9 -16 -2 -10 -11 -10 -8 -7
-9 -16 -3 -10 -11 -10 -8 -7
-8 -15 -4 -11 -12 -11 -9 -7
-7 -15 -4 -12 -12 -12 -10 -7
-7 -15 -5 -12 -12 -12 -10 -7
-6 -14 -6 -13 -13 -13 -11 -8
-6 -14 -6 -13 -13 -13 -11 -8
-6 -15 -6 -13 -13 -12 -10 -7
-6 -15 -6 -13 -13 -12 -10 -7
-6 -15 -6 -13 -13 -12 -10 -7
-6 -16 -6 -13 -12 -11 -9 -6
-6 -16 -6 -13 -12 -11 -9 -6
-5 -16 -7 -13 -12 -11 -10 -6
-4 -16 -8 -13 -12 -11 -10 -6
-4 -16 -8 -13 -12 -11 -10 -6
-2 -16 -9 -11 -10 -10 -10 -7
2 -16 -8 -5 -4 -6 -7 -5
6 -17 -7 2 3 -2 -4 -3
9 -17 -7 7 8 3 -2 0
12 -17 -6 13 14 7 2 2
16 -12 -6 19 24 17 10 7
22 2 -9 25 38 35 23 16
27 15 -12 32 54 53 35 26
32 27 -14 38 68 71 49 35
38 40 -17 45 82 89 61 45
45 54 -28 49 98 110 77 56
53 66 -47 48 113 134 96 70
60 79 -66 46 128 158 114 84
67 92 -85 45 143 182 133 97
75 104 -103 44 157 206 152 111
79 123 -124 29 159 221 169 126
77 150 -149 4 147 226 184 141
75 176 -174 -23 135 231 199 157
73 201 -197 -50 122 235 215 173
71 228 -222 -76 110 240 230 188
60 229 -248 -129 54 202 215 183
39 202 -279 -208 -45 120 165 156
20 177 -309 -287 -143 37 116 130
0 151 -340 -366 -242 -45 67 102
-21 125 -370 -446 -341 -128 19 75
-32 98 -378 -478 -391 -177 -17 51
-34 70 -361 -462 -391 -193 -38 29
-35 42 -344 -445 -391 -208 -60 9
-37 14 -326 -429 -391 -225 -82 -13
-39 -15 -310 -412 -391 -241 -104 -34
-40 -27 -282 -380 -369 -237 -111 -46
-38 -21 -244 -331 -322 -212 -103 -46
-37 -15 -206 -282 -276 -186 -95 -46
-36 -9 -169 -234 -229 -160 -87 -46
-34 -3 -130 -186 -183 -135 -78 -46
-33 -2 -103 -150 -149 -115 -71 -45
-32 -8 -86 -128 -129 -102 -65 -43
-31 -13 -69 -106 -109 -89 -59 -39
-30 -18 -53 -83 -89 -75 -53 -36
-29 -24 -36 -62 -69 -62 -47 -34
-27 -27 -24 -47 -55 -53 -43 -32
-24 -27 -18 -38 -47 -48 -38 -30
-21 -27 -12 -30 -39 -44 -35 -28
-17 -27 -5 -22 -31 -38 -32 -26
-14 -27 2 -15 -23 -33 -28 -24
-12 -28 7 -9 -18 -29 -26 -22
-12 -28 9 -5 -14 -27 -25 -22
-12 -28 11 -2 -10 -24 -25 -22
-12 -28 13 3 -6 -21 -24 -22
-12 -28 15 7 -2 -19 -23 -22
-11 -28 17 9 2 -17 -22 -23
-10 -28 19 11 4 -17 -22 -23
-10 -28 20 12 6 -17 -22 -23
-9 -28 21 14 8 -17 -21 -23
-8 -28 23 16 10 -17 -21 -23
-7 -27 24 17 13 -16 -20 -22
-7 -27 25 19 15 -14 -18 -20
-7 -27 26 21 17 -12 -17 -18
-6 -27 28 23 20 -10 -15 -16
-6 -27 29 25 22 -8 -13 -14
-5 -28 30 27 24 -6 -12 -13
-5 -28 31 28 24 -6 -12 -13
-5 -28 32 29 24 -6 -12 -14
-5 -28 33 30 25 -5 -12 -15
-5 -28 34 31 25 -5 -12 -15
-4 -27 35 33 26 -4 -13 -16
-4 -27 37 35 27 -4 -13 -16
-4 -26 38 38 28 -4 -13 -16
-3 -25 40 42 30 -3 -13 -15
-3 -25 43 44 31 -3 -13 -15
-2 -24 44 46 32 -2 -13 -14
-2 -24 46 48 33 -2 -13 -14
-2 -24 48 49 34 -2 -13 -14
-2 -25 50 51 35 0 -13 -14
-2 -25 52 53 36 0 -13 -14
-3 -26 53 55 38 1 -12 -14
0 -26 55 57 40 3 -12 -14
1 -26 56 60 44 4 -12 -14
2 -26 58 62 46 5 -12 -15
4 -26 60 65 49 7 -12 -15
5 -25 62 68 52 8 -11 -16
6 -23 64 71 55 9 -10 -15
7 -21 67 74 57 10 -9 -14
8 -19 69 78 60 12 -8 -13
9 -17 72 81 63 13 -7 -12
10 -15 74 85 66 14 -6 -11
10 -16 76 88 69 15 -6 -11
10 -17 78 91 71 15 -6 -12
11 -19 80 94 74 16 -6 -13
11 -20 82 97 77 17 -6 -13
11 -22 84 99 79 18 -7 -14
9 -24 84 100 79 18 -7 -15
6 -26 84 100 79 18 -8 -16
4 -29 85 101 79 17 -9 -17
1 -31 85 102 79 17 -9 -18
-2 -33 86 103 78 16 -10 -19
0 -31 87 106 80 18 -8 -17
1 -30 88 108 82 19 -7 -16
3 -29 90 110 85 21 -6 -15
4 -27 91 112 87 23 -4 -13
5 -26 92 114 89 24 -3 -12
5 -26 92 114 87 24 -4 -13
5 -26 92 113 86 23 -4 -13
5 -26 92 112 85 22 -5 -14
5 -26 92 112 82 22 -6 -15
6 -26 92 111 81 21 -7 -16
7 -24 91 109 81 21 -7 -16
7 -23 90 107 80 21 -7 -16
8 -22 88 105 79 21 -6 -16
9 -20 87 104 79 21 -6 -16
10 -19 86 101 77 22 -5 -15
9 -19 85 99 75 20 -5 -15
8 -20 85 97 73 18 -5 -14
7 -21 84 94 70 16 -6 -13
6 -21 82 92 68 15 -6 -13
5 -22 81 89 66 13 -7 -12
5 -22 79 87 64 13 -7 -12
5 -21 77 85 62 13 -7 -12
5 -20 75 81 60 12 -7 -12
5 -20 74 79 59 12 -7 -12
6 -19 71 76 57 11 -7 -12
6 -19 69 73 55 11 -6 -11
6 -19 67 70 53 11 -6 -9
6 -19 64 67 51 11 -5 -8
6 -19 62 64 50 11 -4 -6
7 -18 59 61 48 12 -3 -5
6 -17 57 58 46 12 -3 -5
6 -16 55 55 44 12 -3 -5
5 -14 52 52 42 11 -3 -6
4 -13 50 49 39 11 -3 -6
3 -12 48 46 37 10 -2 -7
3 -12 46 43 35 10 0 -5
3 -12 44 39 33 9 1 -4
3 -12 42 36 31 8 2 -2
3 -12 39 33 29 8 3 1
3 -11 37 31 27 7 4 2
4 -8 35 29 25 7 4 2
6 -5 33 27 24 7 4 2
7 -2 31 25 22 6 4 2
9 3 30 24 20 6 4 2
9 5 27 21 18 5 4 3
6 2 25 16 15 3 3 2
2 0 22 11 11 1 2 2
-2 -4 19 7 8 -2 1 1
-5 -6 16 2 5 -3 0 0
-8 -8 14 -2 2 -5 -2 -2
-8 -9 13 -3 1 -6 -2 -2
-8 -10 12 -5 0 -6 -2 -2
-8 -12 11 -6 -2 -7 -3 -3
-8 -13 10 -8 -3 -8 -3 -3
-7 -14 9 -9 -4 -9 -4 -4
-7 -14 8 -10 -5 -9 -4 -4
-8 -14 7 -11 -6 -10 -4 -4
-9 -14 6 -12 -8 -11 -4 -4
-9 -14 5 -13 -9 -11 -4 -4
-10 -14 4 -14 -10 -12 -5 -4
-9 -14 4 -14 -10 -12 -5 -4
-9 -14 4 -13 -10 -12 -5 -4
-8 -13 5 -12 -10 -12 -5 -4
-7 -13 5 -12 -10 -12 -5 -4
-6 -12 6 -11 -9 -11 -6 -5
-6 -12 6 -10 -9 -11 -6 -5
-6 -11 7 -10 -9 -10 -5 -4
-6 -10 8 -9 -9 -9 -4 -3
-6 -10 8 -8 -9 -9 -4 -3
-7 -9 9 -7 -9 -8 -3 -2
-6 -7 11 -6 -8 -8 -3 -2
-6 -5 13 -4 -6 -8 -3 -2
-5 -3 15 -3 -5 -8 -3 -3
-4 0 16 0 -3 -8 -3 -3
-3 2 18 1 -2 -7 -3 -4
-3 2 19 2 0 -6 -3 -3
-3 3 19 3 1 -6 -2 -3
-3 4 20 4 2 -5 0 -2
-3 4 21 5 3 -4 0 0
-4 5 22 6 4 -3 1 1
-4 5 23 7 5 -3 1 1
-4 5 24 7 6 -2 1 1
-4 4 25 8 7 0 1 1
-4 4 26 9 8 0 1 1
-4 3 27 10 9 1 2 0
-4 6 26 10 9 1 2 0
-4 8 25 9 9 1 2 0
-4 10 23 8 9 1 2 1
-4 12 22 8 9 1 2 1
-4 14 21 7 8 1 3 2
0 16 20 7 8 1 3 2
3 18 20 7 8 1 3 2
5 20 19 7 8 2 3 2
8 21 18 7 8 2 3 2
10 23 17 8 9 3 3 3
9 23 16 8 8 3 4 4
9 23 16 8 8 3 5 5
8 22 15 7 7 4 6 6
7 22 14 7 6 4 7 7
6 21 13 6 5 5 8 8
4 19 12 6 4 5 8 8
3 17 11 5 4 5 8 8
1 15 9 4 3 5 8 7
0 13 8 4 2 5 8 7
-3 11 7 3 1 5 7 6
-2 12 7 3 1 5 7 6
1 13 7 3 1 5 7 6
2 15 6 3 1 5 7 6
4 16 6 3 1 5 7 6
5 16 5 2 0 6 7 6
5 13 5 2 0 5 5 5
4 9 5 2 0 4 4 3
3 5 5 2 -2 2 2 2
3 2 5 2 -2 1 1 0
2 -2 5 1 -3 0 -2 -2
1 -4 4 0 -4 -2 -3 -2
0 -6 4 -3 -5 -3 -3 -3
-2 -8 3 -4 -6 -5 -4 -4
-3 -10 2 -6 -7 -6 -5 -4
-4 -12 1 -7 -8 -7 -6 -5
-4 -13 0 -8 -9 -8 -7 -6
-5 -13 0 -8 -9 -9 -8 -6
-6 -14 -2 -9 -10 -11 -10 -7
-6 -15 -3 -10 -11 -12 -11 -8
-7 -16 -4 -11 -12 -13 -12 -9
-7 -16 -4 -11 -12 -12 -11 -9
-7 -15 -4 -11 -12 -12 -10 -9
-6 -14 -4 -10 -11 -11 -8 -9
-6 -14 -4 -10 -11 -10 -7 -9
-5 -13 -4 -9 -10 -9 -6 -9
-5 -13 -4 -9 -10 -9 -4 -9
-4 -13 -5 -9 -10 -9 -2 -9
-3 -14 -6 -9 -10 -9 1 -9
-3 -14 -6 -9 -10 -9 2 -9
-2 -15 -7 -7 -9 -7 5 -8
2 -15 -7 -2 -4 -3 9 -6
5 -15 -6 4 2 2 12 -4
8 -16 -6 9 6 6 16 -3
11 -16 -5 14 11 10 20 0
15 -15 -4 19 19 17 26 4
19 -6 -5 25 31 32 38 12
23 4 -6 31 44 48 51 21
27 13 -7 36 57 63 63 29
32 22 -9 43 69 78 75 37
37 33 -15 46 81 96 89 48
47 47 -33 40 94 118 107 61
56 61 -52 34 105 141 125 74
65 74 -70 29 116 163 143 88
74 88 -88 24 129 186 161 101
80 106 -107 14 134 204 179 115
80 133 -130 -9 125 211 194 132
80 159 -151 -31 114 217 211 148
80 186 -174 -54 104 224 227 164
80 213 -195 -76 94 230 243 181
72 223 -220 -114 58 210 239 184
47 195 -249 -188 -34 130 189 155
21 168 -280 -262 -127 49 139 127
-5 140 -310 -336 -219 -32 88 98
-30 112 -340 -409 -312 -113 37 69
-49 85 -358 -460 -377 -175 -4 43
-51 58 -348 -455 -380 -192 -27 21
-52 31 -338 -450 -384 -211 -50 0
-54 5 -327 -446 -388 -228 -72 -21
-55 -22 -317 -442 -392 -245 -95 -43
-57 -41 -299 -423 -382 -252 -109 -58
-56 -38 -263 -370 -339 -227 -101 -58
-54 -35 -227 -318 -296 -203 -93 -58
-53 -32 -191 -267 -253 -179 -83 -57
-51 -29 -156 -215 -210 -154 -75 -57
-49 -27 -126 -171 -172 -132 -67 -55
-43 -26 -105 -144 -147 -115 -58 -50
-36 -26 -86 -117 -122 -98 -49 -45
-30 -25 -66 -91 -98 -81 -39 -39
-25 -24 -47 -65 -72 -64 -30 -34
-20 -23 -31 -44 -53 -51 -23 -30
-18 -23 -24 -35 -46 -45 -20 -28
-16 -23 -18 -27 -37 -39 -17 -26
-14 -24 -11 -18 -30 -34 -14 -24
-12 -24 -5 -10 -23 -28 -11 -22
-10 -25 1 -3 -16 -24 -8 -20
-10 -25 4 2 -12 -21 -7 -20
-10 -26 6 6 -8 -19 -6 -19
-9 -26 8 10 -4 -16 -5 -19
-9 -27 11 14 2 -13 -3 -18
-8 -28 13 17 5 -11 -2 -17
-7 -28 14 19 7 -10 -2 -17
-7 -27 16 20 9 -10 -2 -16
-6 -27 17 22 11 -9 0 -16
-5 -26 19 23 13 -8 0 -15
-4 -25 20 25 15 -7 1 -14
-4 -26 21 27 17 -6 1 -15
-4 -26 23 29 18 -6 1 -15
-4 -27 24 30 20 -5 1 -16
-4 -28 26 32 21 -4 1 -17
-5 -29 27 34 23 -3 0 -18
-5 -27 28 35 24 -2 0 -18
-4 -26 29 36 24 -2 0 -17
-4 -24 30 37 25 0 1 -17
-3 -23 31 39 26 1 1 -16
-2 -21 32 40 27 2 2 -15
-2 -22 33 43 28 2 2 -15
-2 -22 33 45 29 2 2 -15
0 -23 34 47 30 2 2 -16
0 -24 35 49 32 2 2 -16
1 -25 36 51 33 3 1 -17
2 -23 38 53 34 4 1 -17
3 -21 39 55 36 4 1 -17
4 -20 42 57 37 5 1 -17
6 -18 43 59 38 6 1 -17
7 -16 45 61 40 7 2 -16
7 -19 46 63 43 8 2 -16
6 -21 48 65 45 9 2 -16
6 -23 49 68 48 10 3 -16
5 -26 50 70 50 12 3 -16
4 -28 52 72 52 13 4 -16
4 -28 53 74 54 13 4 -16
4 -27 55 76 56 13 4 -16
4 -27 56 78 58 14 3 -16
4 -26 57 80 60 14 3 -16
3 -25 59 82 62 15 2 -17
3 -25 61 87 65 16 2 -17
3 -25 63 91 68 17 2 -17
3 -26 66 94 71 18 2 -17
3 -26 68 98 74 20 2 -17
4 -27 70 101 77 21 2 -17
4 -27 71 103 78 21 2 -17
4 -27 73 105 79 22 2 -17
4 -26 74 107 80 22 2 -17
4 -26 75 109 82 23 2 -17
5 -25 77 111 84 24 2 -18
6 -25 79 113 86 26 3 -17
6 -25 80 115 88 28 3 -16
7 -24 82 118 90 29 4 -15
8 -24 84 120 92 31 5 -14
9 -23 86 122 94 33 6 -13
9 -23 86 121 92 32 6 -13
9 -22 86 119 91 31 6 -13
9 -22 85 118 89 30 6 -13
9 -21 85 117 88 29 6 -13
10 -20 84 115 86 28 6 -12
10 -20 84 114 85 28 6 -12
10 -20 82 112 84 28 5 -12
10 -20 81 111 82 27 5 -12
10 -20 80 110 81 27 4 -12
10 -20 79 108 80 26 3 -12
10 -20 78 105 78 26 3 -12
10 -19 77 103 75 25 3 -12
10 -18 76 100 73 25 3 -12
10 -17 74 97 70 24 3 -12
10 -16 73 95 68 23 4 -11
10 -16 71 92 66 22 4 -11
10 -16 69 89 64 20 4 -11
9 -16 66 86 61 18 5 -12
9 -16 64 82 59 17 5 -12
8 -16 62 79 57 15 6 -13
9 -13 61 76 56 15 7 -12
11 -9 60 74 54 15 9 -10
12 -6 59 71 52 15 11 -9
13 -3 57 68 51 15 12 -8
15 1 56 66 49 15 14 -6
14 0 53 64 48 15 14 -6
12 -3 51 62 46 14 14 -6
10 -4 48 59 45 14 13 -6
9 -5 46 57 44 13 13 -6
7 -7 43 55 42 12 12 -6
7 -7 39 50 38 11 12 -6
6 -7 37 46 35 10 12 -6
5 -6 34 42 32 9 13 -5
4 -6 32 37 29 8 13 -5
3 -5 29 33 26 7 14 -4
2 -5 28 30 24 6 13 -5
1 -6 26 28 22 5 12 -6
0 -6 24 25 21 4 11 -7
-3 -7 23 23 19 3 9 -8
-4 -8 21 20 17 2 8 -9
-4 -8 19 17 14 2 8 -9
-4 -8 17 14 12 1 8 -8
-4 -8 15 11 9 1 9 -8
-4 -8 13 9 7 0 9 -7
-4 -9 11 6 4 -2 10 -6
-4 -9 11 6 4 -2 9 -6
-4 -9 11 5 4 -3 8 -6
-4 -9 11 5 3 -3 7 -6
-4 -9 11 4 3 -4 6 -6
-5 -9 10 3 2 -5 5 -6
-5 -9 10 2 1 -5 5 -6
-5 -9 9 0 -2 -6 5 -6
-5 -8 8 -2 -4 -7 5 -6
-5 -8 7 -3 -5 -8 5 -6
-4 -7 6 -5 -7 -9 5 -5
-4 -7 6 -5 -7 -9 5 -5
-4 -7 6 -4 -6 -9 5 -5
-4 -7 7 -4 -6 -8 5 -5
-4 -7 7 -3 -5 -8 5 -5
-5 -8 8 -2 -4 -7 5 -5
-5 -8 9 -2 -4 -7 5 -5
-4 -8 10 0 -4 -7 5 -4
-4 -8 11 1 -4 -6 6 -3
-3 -8 12 2 -4 -6 6 -2
-2 -7 13 3 -3 -5 7 0
-2 -6 13 4 -2 -5 7 -2
-2 -5 14 5 1 -5 6 -3
-2 -4 15 6 3 -4 6 -4
-2 -2 16 8 4 -4 5 -5
-3 0 17 9 6 -3 4 -6
-3 1 18 9 6 -3 4 -6
-3 3 19 10 6 -2 4 -5
-3 5 20 11 6 0 4 -5
-3 6 21 12 6 1 4 -4
-2 8 22 13 7 2 5 -3
-2 9 23 14 8 2 5 -3
0 10 24 15 10 2 5 -3
0 11 25 16 11 2 5 -3
1 13 27 18 12 2 5 -3
2 14 28 19 14 2 5 -2
2 14 27 19 14 2 5 0
3 15 25 19 14 3 6 1
4 15 24 19 13 3 6 2
5 16 23 19 13 4 7 3
6 17 21 20 12 5 8 4
4 15 19 17 11 5 7 4
2 14 17 14 10 4 6 3
0 12 14 10 9 4 5 2
-3 10 12 7 8 3 4 1
-5 8 10 4 7 2 3 0
-3 11 10 4 7 3 4 2
-2 13 10 5 8 5 6 3
1 16 10 6 8 6 8 5
3 18 10 7 9 7 9 7
5 21 11 8 10 9 11 9
5 19 11 8 10 9 11 9
5 18 10 8 10 9 11 9
5 16 10 8 9 8 10 9
5 14 9 8 9 8 10 9
4 12 8 7 8 7 9 8
4 12 8 6 7 6 9 8
4 11 7 5 6 5 8 7
4 10 6 4 5 4 8 6
4 9 5 3 4 3 7 5
4 8 4 2 3 2 6 4
3 5 4 2 2 1 4 3
2 2 4 1 1 0 3 1
1 -2 4 1 0 -2 1 -2
0 -5 4 0 -2 -3 -2 -3
-2 -8 3 -2 -4 -5 -4 -5
-2 -9 3 -3 -5 -5 -4 -5
-3 -11 3 -4 -6 -6 -5 -5
-3 -12 2 -5 -7 -7 -5 -5
-4 -13 2 -6 -8 -8 -6 -5
-5 -15 1 -8 -9 -9 -7 -5
-5 -15 1 -8 -9 -9 -7 -6
-5 -15 0 -8 -9 -9 -8 -7
-5 -14 0 -8 -9 -9 -8 -8
-5 -14 -2 -8 -9 -9 -9 -9
-6 -13 -3 -9 -9 -10 -10 -10
-6 -13 -3 -9 -9 -10 -10 -10
-6 -13 -3 -10 -9 -10 -10 -10
-6 -13 -3 -11 -10 -10 -10 -10
-6 -13 -3 -12 -10 -10 -10 -10
-6 -14 -4 -13 -11 -11 -9 -10
-5 -14 -4 -13 -11 -11 -6 -10
-4 -14 -4 -12 -10 -11 -3 -10
-3 -14 -4 -12 -10 -10 1 -9
-2 -14 -4 -11 -9 -10 4 -9
1 -15 -3 -10 -8 -9 7 -8
4 -14 -3 -4 -2 -4 11 -6
7 -13 -3 3 5 1 15 -4
11 -12 -3 9 11 6 18 -2
14 -11 -3 15 17 11 22 2
17 -9 -2 21 24 17 27 5
23 4 -7 25 38 36 42 15
29 17 -12 29 53 56 56 25
35 29 -17 32 66 75 69 36
42 42 -21 36 80 95 84 47
47 55 -28 39 95 115 98 58
54 69 -49 32 104 137 117 72
60 84 -69 24 114 159 136 87
67 99 -90 17 123 181 155 101
73 113 -110 9 133 203 174 115
78 130 -132 -3 139 223 191 130
71 153 -155 -36 111 216 195 140
63 177 -180 -70 85 209 199 149
55 200 -203 -104 57 201 204 159
47 224 -228 -138 30 194 209 170
37 240 -253 -176 -6 178 206 176
20 205 -278 -242 -91 97 158 145
3 172 -304 -309 -177 17 109 114
-15 137 -329 -377 -263 -64 60 85
-33 103 -355 -443 -349 -145 12 54
-49 70 -376 -498 -422 -216 -32 25
-51 48 -352 -471 -405 -222 -48 9
-53 26 -328 -443 -388 -227 -63 -9
-55 4 -306 -415 -370 -233 -78 -25
-57 -19 -282 -388 -353 -239 -94 -43
-59 -38 -258 -358 -333 -241 -107 -58
-55 -34 -225 -314 -295 -215 -97 -55
-51 -30 -191 -269 -257 -189 -88 -52
-47 -25 -158 -225 -219 -162 -77 -49
-43 -21 -124 -181 -180 -136 -67 -46
-38 -17 -94 -139 -144 -111 -58 -43
-34 -17 -78 -118 -124 -98 -51 -40
-30 -18 -63 -98 -106 -85 -45 -37
-26 -19 -48 -77 -87 -72 -37 -34
-22 -20 -33 -57 -67 -59 -30 -32
-18 -21 -19 -38 -50 -47 -24 -29
-17 -21 -14 -32 -45 -43 -22 -28
-16 -21 -9 -25 -40 -38 -19 -27
-14 -22 -4 -19 -35 -35 -17 -25
-13 -22 2 -13 -31 -31 -15 -24
-11 -23 7 -7 -26 -27 -12 -22
-11 -24 9 -4 -22 -25 -12 -22
-10 -25 10 1 -18 -22 -11 -22
-10 -26 12 4 -15 -19 -11 -22
-9 -27 14 7 -11 -17 -10 -22
-8 -28 16 11 -7 -14 -9 -22
-8 -28 17 12 -6 -14 -9 -22
-7 -27 18 13 -4 -14 -8 -21
-7 -27 19 15 -3 -14 -7 -20
-6 -26 20 16 0 -14 -6 -19
-5 -25 22 18 2 -13 -5 -18
-4 -24 23 20 3 -11 -4 -18
-3 -23 24 22 5 -9 -3 -18
0 -21 26 24 7 -7 -2 -18
1 -20 27 27 9 -5 0 -18
3 -18 29 29 11 -3 1 -18
2 -19 30 29 11 -3 1 -18
1 -21 31 30 11 -3 1 -17
0 -23 33 31 11 -3 1 -17
-2 -25 34 32 11 -3 1 -16
-3 -27 36 33 11 -3 1 -15
-5 -28 36 34 11 -3 0 -16
-7 -30 36 35 11 -3 -3 -17
-9 -32 36 37 12 -3 -4 -18
-11 -34 36 38 12 -3 -6 -19
-13 -36 35 40 13 -4 -8 -21
-12 -35 37 43 14 -4 -7 -20
-11 -34 39 45 15 -3 -6 -19
-9 -33 42 47 17 -3 -5 -18
-8 -32 44 49 18 -2 -4 -17
-6 -30 47 51 20 0 -2 -16
-5 -29 49 54 23 1 -2 -16
-4 -28 51 57 27 3 -2 -16
-2 -27 53 60 30 4 -2 -17
0 -26 55 64 33 6 -2 -17
2 -24 58 67 37 8 -3 -18
2 -24 60 69 39 8 -3 -18
2 -24 63 71 42 8 -3 -18
2 -24 65 73 44 9 -3 -17
2 -24 67 75 46 9 -3 -17
1 -24 70 78 48 10 -2 -16
1 -24 71 81 50 11 -2 -16
1 -24 73 85 52 12 -2 -17
2 -24 75 88 55 13 -2 -17
2 -24 77 91 57 14 -2 -18
3 -25 79 94 60 16 -2 -19
3 -25 81 96 61 16 -2 -19
3 -25 84 98 62 17 0 -18
3 -25 86 101 63 18 0 -18
3 -25 88 103 64 19 1 -17
3 -24 90 106 66 20 2 -16
4 -24 90 107 67 21 2 -16
5 -24 91 108 68 22 2 -16
6 -24 91 110 70 23 2 -16
7 -24 92 111 71 24 2 -16
8 -24 93 113 73 26 2 -15
8 -23 93 112 72 26 2 -15
8 -22 93 111 70 25 2 -15
8 -21 92 110 68 24 2 -15
8 -20 92 109 66 23 2 -15
7 -18 91 107 64 22 2 -15
7 -18 90 106 64 22 3 -15
7 -18 89 105 63 22 5 -15
7 -17 88 103 62 22 6 -15
7 -17 87 102 61 22 8 -15
6 -16 85 100 60 22 10 -15
7 -14 85 98 58 22 12 -14
9 -12 85 96 56 21 14 -13
11 -9 84 93 53 20 16 -12
13 -7 84 91 51 19 18 -11
15 -4 82 88 48 18 21 -9
13 -6 80 85 47 17 20 -9
11 -9 78 81 45 16 18 -10
8 -11 75 78 43 14 17 -10
6 -14 73 75 40 13 15 -11
3 -17 70 71 38 11 13 -12
2 -17 68 68 35 10 13 -12
1 -17 65 64 32 9 13 -12
0 -16 63 61 29 8 14 -11
-2 -16 60 57 26 7 14 -11
-3 -15 57 53 23 5 15 -10
-3 -15 55 50 22 5 15 -10
-4 -15 52 47 20 5 15 -10
-4 -14 49 44 18 4 15 -10
-5 -14 46 40 16 4 15 -10
-6 -13 43 36 14 3 15 -10
-6 -12 42 34 13 3 15 -9
-5 -10 39 31 11 3 16 -8
-5 -8 38 29 9 3 17 -6
-4 -6 36 26 7 3 18 -5
-3 -4 34 23 5 3 19 -3
-3 -4 32 21 4 3 19 -3
-3 -3 30 19 3 3 19 -3
-2 -3 28 17 2 3 19 -3
-2 -2 26 15 1 3 19 -3
0 0 24 12 0 2 18 -4
-2 0 23 10 -3 1 18 -4
-3 -2 22 7 -5 -2 18 -3
-4 -2 20 4 -8 -3 18 -3
-5 -3 19 1 -10 -5 18 -2
-6 -4 17 -3 -13 -7 17 0
-6 -4 17 -4 -13 -7 17 0
-6 -5 16 -5 -14 -7 16 0
-6 -6 16 -6 -14 -7 15 -2
-6 -7 15 -7 -15 -7 14 -2
-6 -8 14 -8 -16 -8 13 -3
-6 -8 14 -8 -16 -8 13 -3
-6 -7 13 -8 -17 -9 13 -3
-6 -7 13 -9 -17 -9 13 -2
-6 -6 12 -9 -18 -10 13 -2
-7 -5 11 -10 -19 -11 13 0
-7 -5 11 -10 -19 -11 13 0
-7 -6 11 -10 -19 -10 13 -2
-7 -6 11 -9 -19 -9 12 -2
-7 -7 11 -9 -19 -8 12 -3
-7 -8 12 -8 -18 -7 11 -4
-7 -6 13 -8 -18 -7 11 -4
-7 -4 14 -7 -17 -7 12 -3
-6 -2 15 -6 -17 -7 12 -2
-6 1 16 -5 -16 -7 13 0
-5 3 17 -4 -15 -7 14 1
-4 5 18 -2 -13 -6 14 1
-3 7 20 1 -11 -4 14 1
0 9 22 4 -9 -3 14 1
1 11 24 6 -7 0 14 1
3 13 26 9 -4 2 15 0
3 13 26 9 -4 2 15 0
3 13 27 9 -3 2 16 1
3 13 28 10 -3 2 16 2
3 13 29 10 -2 2 17 3
2 12 30 11 0 3 18 4
1 11 30 11 0 3 17 4
-2 10 29 11 0 3 16 3
-3 9 28 11 0 2 15 2
-5 8 27 11 0 2 14 1
-7 7 26 10 1 1 13 0
-7 8 25 10 1 1 13 1
-6 9 23 9 1 1 13 2
-6 10 22 9 2 2 13 3
-5 11 20 8 2 2 13 4
-4 13 18 7 3 3 12 6
-4 13 18 7 3 3 12 6
-4 13 17 7 3 3 11 6
-3 14 16 6 2 3 10 6
-3 14 15 6 2 3 9 6
-3 14 15 6 2 3 9 6
0 16 14 5 1 3 8 6
1 18 13 5 1 4 9 7
3 20 12 5 2 4 9 8
4 22 11 5 2 5 10 9
5 23 11 5 2 5 10 10
6 23 10 5 3 6 11 11
6 21 10 5 3 6 10 11
6 19 9 5 3 6 9 11
6 17 9 5 3 6 8 11
6 16 9 5 3 6 8 11
6 13 8 4 2 6 6 10
5 10 8 3 2 5 4 9
4 7 8 2 1 4 3 8
3 4 8 1 1 3 1 7
2 1 8 1 1 2 0 6
1 -2 8 0 0 0 -2 4
0 -4 7 -2 -2 -2 -3 2
-2 -6 7 -3 -2 -3 -4 0
-3 -8 6 -4 -3 -4 -5 -3
-4 -10 6 -5 -3 -5 -6 -4
-5 -11 4 -6 -5 -6 -7 -5
-5 -11 3 -7 -6 -7 -7 -5
-5 -12 1 -8 -7 -8 -6 -5
-5 -12 0 -9 -8 -9 -6 -5
-5 -12 -2 -10 -9 -10 -6 -5
-4 -13 -3 -11 -10 -11 -5 -6
-4 -13 -4 -11 -10 -11 -5 -7
-5 -14 -4 -11 -10 -11 -5 -7
-5 -14 -5 -11 -10 -11 -5 -8
-5 -14 -5 -11 -10 -11 -5 -8
-5 -14 -6 -11 -10 -12 -2 -9
-3 -13 -6 -11 -10 -12 1 -8
0 -12 -5 -10 -10 -12 4 -7
2 -11 -5 -10 -10 -12 6 -6
3 -10 -5 -10 -10 -12 8 -6
4 -10 -5 -9 -8 -10 9 -5
4 -11 -6 -9 -6 -9 10 -5
5 -13 -8 -8 -3 -7 11 -6
5 -14 -9 -8 0 -6 12 -6
5 -15 -10 -8 2 -5 13 -6
8 -14 -11 0 11 4 21 -3
10 -12 -10 8 19 13 28 3
13 -10 -9 15 27 21 35 7
15 -8 -8 22 36 29 44 12
17 -6 -8 29 45 37 51 16
24 7 -21 29 58 59 66 27
30 18 -35 27 70 80 82 38
37 30 -51 26 84 103 99 51
45 42 -65 24 96 125 114 62
51 54 -80 23 109 147 131 73
56 78 -101 11 114 167 150 91
60 104 -121 -3 119 187 170 108
65 130 -143 -15 125 207 189 126
70 155 -163 -28 129 228 209 144
74 180 -185 -40 134 248 229 161
60 186 -216 -100 71 204 217 159
43 191 -246 -161 4 157 203 156
25 196 -278 -223 -64 109 189 153
8 201 -309 -284 -132 61 175 150
-10 206 -341 -346 -199 14 160 147
-18 170 -349 -379 -248 -41 115 116
-26 129 -357 -408 -297 -97 68 85
-34 89 -364 -439 -344 -152 20 53
-43 48 -371 -469 -392 -207 -27 20
-51 8 -379 -499 -440 -263 -74 -12
-53 -2 -344 -455 -405 -251 -79 -21
-54 -9 -305 -406 -365 -233 -81 -30
-55 -17 -267 -357 -325 -216 -85 -38
-56 -24 -228 -308 -284 -198 -87 -48
-57 -31 -190 -259 -244 -181 -89 -56
-53 -30 -162 -223 -212 -160 -80 -53
-46 -27 -137 -187 -180 -139 -70 -48
-39 -24 -110 -152 -148 -117 -60 -43
-33 -21 -85 -116 -116 -97 -50 -38
-27 -19 -58 -81 -85 -75 -39 -33
-24 -20 -48 -67 -71 -66 -35 -31
-21 -22 -38 -55 -60 -58 -31 -29
-19 -24 -29 -41 -48 -49 -27 -28
-16 -26 -20 -29 -35 -40 -23 -26
-14 -28 -11 -16 -23 -32 -19 -25
-13 -29 -8 -12 -19 -30 -18 -24
-13 -29 -5 -8 -16 -28 -18 -24
-12 -29 -2 -4 -12 -26 -17 -23
-12 -29 2 0 -8 -24 -17 -23
-12 -29 4 4 -5 -23 -17 -23
-10 -29 6 7 -2 -21 -16 -22
-9 -29 8 9 3 -19 -15 -21
-7 -29 10 12 6 -17 -14 -20
-6 -29 12 14 9 -15 -13 -19
-5 -29 14 16 12 -13 -12 -19
-3 -27 16 18 14 -12 -11 -18
-2 -25 18 20 16 -11 -11 -18
1 -23 20 22 17 -10 -10 -17
2 -21 22 24 19 -9 -10 -17
3 -19 24 26 20 -8 -10 -17
2 -21 25 27 21 -7 -9 -16
-3 -26 25 27 21 -7 -10 -17
-6 -30 25 27 22 -7 -10 -18
-9 -34 25 27 22 -7 -11 -19
-12 -38 25 27 22 -7 -11 -20
-13 -39 25 29 23 -7 -12 -21
-12 -38 26 31 24 -7 -12 -21
-11 -37 28 33 25 -6 -13 -21
-10 -36 29 35 26 -6 -13 -21
-10 -36 30 36 27 -6 -13 -21
-9 -35 32 39 29 -5 -14 -20
-8 -35 34 42 31 -4 -14 -20
-7 -35 36 44 33 -3 -13 -19
-6 -35 38 47 35 -2 -13 -19
-6 -35 39 49 36 0 -13 -19
-5 -34 42 51 38 1 -12 -18
-5 -34 44 54 40 1 -12 -18
-5 -34 46 56 42 1 -13 -18
-5 -34 48 58 44 1 -13 -18
-5 -34 50 60 45 1 -13 -18
-4 -33 52 63 48 3 -14 -17
-4 -33 54 66 52 4 -14 -17
-4 -33 56 69 55 6 -14 -18
-4 -33 58 72 58 7 -14 -18
-4 -33 59 75 61 8 -14 -18
-3 -32 62 79 64 9 -15 -19
-2 -32 64 82 66 10 -14 -18
-2 -32 67 86 69 11 -13 -18
0 -32 70 90 72 12 -12 -17
0 -32 72 93 74 13 -12 -17
1 -32 74 96 77 15 -10 -16
1 -32 76 99 80 16 -8 -16
1 -32 78 102 84 18 -6 -16
1 -32 80 104 86 19 -4 -16
1 -32 81 107 89 20 -2 -16
2 -32 84 109 90 21 0 -17
2 -32 86 111 91 22 1 -17
2 -33 87 113 92 23 2 -16
2 -33 89 115 93 24 3 -16
2 -33 90 117 93 24 3 -16
3 -34 91 118 94 25 5 -15
3 -34 91 118 95 25 7 -15
4 -33 91 118 95 25 8 -15
4 -33 91 118 96 25 10 -15
4 -33 91 118 96 25 11 -15
6 -30 91 119 97 26 12 -16
8 -26 91 118 96 26 13 -15
10 -23 92 117 95 26 14 -14
12 -20 92 116 94 26 15 -13
14 -17 92 116 93 26 16 -12
14 -17 90 113 91 24 16 -11
13 -20 86 111 88 23 15 -12
11 -22 82 109 86 21 14 -13
10 -24 78 106 84 20 13 -14
9 -26 74 104 81 19 12 -15
7 -27 73 99 78 17 11 -16
5 -28 73 95 75 16 10 -16
4 -29 72 90 72 14 10 -15
2 -30 72 86 69 13 9 -15
1 -31 72 80 66 12 9 -15
0 -31 70 78 63 11 8 -14
0 -30 67 76 60 10 8 -13
0 -29 65 74 57 9 8 -13
0 -28 63 73 55 8 8 -12
0 -27 61 71 52 8 8 -12
0 -25 59 67 49 7 7 -11
0 -24 56 63 47 6 7 -10
0 -22 54 59 45 6 7 -10
0 -20 52 55 42 5 7 -9
0 -19 50 51 39 5 7 -9
0 -18 48 48 37 4 8 -8
0 -18 45 46 36 4 8 -7
0 -17 43 43 34 4 9 -7
0 -17 40 39 33 4 9 -6
0 -17 38 37 32 4 9 -6
-2 -15 35 34 29 4 10 -5
-2 -14 33 31 27 3 10 -4
-2 -13 31 27 24 2 10 -3
-2 -12 28 24 21 1 10 -2
-2 -11 26 21 19 0 10 -2
0 -10 24 19 17 -2 10 0
0 -10 23 16 16 -2 10 0
0 -10 22 14 15 -2 10 1
0 -10 20 12 14 -2 10 1
0 -10 19 10 13 -2 10 1
0 -10 17 8 11 -2 9 2
-2 -10 16 6 8 -3 8 2
-2 -9 15 4 6 -4 8 2
-3 -9 13 2 4 -5 7 2
-3 -9 12 0 2 -6 7 2
-4 -8 11 -2 1 -7 6 1
-4 -8 10 -3 1 -7 6 1
-4 -8 9 -4 0 -8 6 1
-4 -8 8 -5 0 -8 6 1
-4 -8 8 -5 0 -8 6 1
-4 -8 7 -6 -2 -9 5 0
-4 -8 7 -6 -2 -9 5 0
-4 -8 7 -6 -3 -8 5 1
-4 -8 7 -6 -3 -8 5 1
-4 -8 7 -6 -3 -8 5 1
-3 -7 8 -5 -4 -7 5 2
-2 -4 9 -4 -3 -6 5 2
0 -2 10 -3 -2 -6 6 2
1 2 11 -2 0 -5 6 2
2 5 12 0 0 -5 6 2
2 5 13 1 1 -4 7 2
0 3 13 1 1 -4 6 2
-3 1 14 1 1 -5 6 2
-5 -2 14 1 1 -5 5 2
-7 -4 14 1 1 -5 5 2
-7 -3 16 3 1 -6 4 2
-5 0 17 5 3 -5 5 2
-3 3 19 7 5 -4 5 3
-2 5 21 8 6 -3 6 3
1 8 22 10 8 -2 6 3
1 8 23 11 9 0 7 4
-3 7 23 10 7 -2 5 3
-5 6 23 9 6 -3 4 2
-8 4 23 8 5 -4 3 1
-10 3 23 7 4 -4 2 1
-10 3 22 6 3 -5 1 0
-9 5 21 6 4 -4 2 1
-7 7 20 6 5 -3 3 2
-5 8 18 6 6 -2 4 3
-4 10 17 6 6 -2 4 3
-3 11 16 5 7 0 5 4
-3 12 15 4 6 -2 5 4
-3 12 14 3 5 -2 4 4
-3 13 13 2 4 -3 4 4
-3 13 12 2 3 -3 4 4
-2 15 11 1 2 -4 3 4
1 16 11 1 3 -2 4 4
2 18 11 2 3 0 5 5
3 20 11 2 4 1 6 5
4 21 11 2 4 2 7 5
5 22 10 3 5 3 8 6
5 21 9 3 5 3 8 7
6 21 8 2 5 3 8 7
6 20 7 2 5 3 8 8
6 20 6 2 5 3 8 8
7 17 5 1 5 3 8 9
6 13 5 1 4 2 6 8
5 10 5 1 4 2 5 7
4 7 5 1 3 1 4 6
4 3 5 1 3 1 3 5
3 0 4 1 1 -2 1 3
2 -3 4 0 0 -3 0 2
1 -6 4 -2 -3 -4 -2 1
0 -8 4 -3 -5 -6 -4 -2
-2 -11 4 -4 -6 -7 -5 -3
-3 -12 3 -5 -7 -8 -6 -4
-3 -12 1 -6 -8 -8 -6 -5
-3 -12 0 -7 -8 -9 -7 -5
-3 -12 -2 -8 -9 -9 -7 -6
-3 -12 -3 -9 -9 -9 -7 -6
-3 -12 -4 -10 -10 -10 -8 -7
-2 -11 -4 -10 -10 -10 -8 -7
1 -10 -3 -10 -10 -10 -8 -6
3 -8 -3 -10 -10 -10 -8 -6
4 -7 -3 -10 -10 -10 -8 -6
5 -8 -2 -9 -10 -9 -7 -5
6 -10 -3 -10 -11 -9 -8 -6
7 -13 -4 -10 -11 -10 -9 -6
8 -15 -5 -11 -12 -10 -10 -7
8 -18 -6 -11 -12 -10 -10 -7
7 -19 -7 -12 -13 -11 -11 -8
3 -20 -8 -11 -12 -10 -11 -8
-2 -20 -8 -10 -11 -10 -11 -8
-6 -21 -9 -9 -10 -9 -11 -8
-10 -21 -9 -9 -9 -9 -11 -8
-7 -21 -9 -3 -3 -4 -7 -6
-2 -19 -7 5 6 4 -3 -4
5 -17 -5 12 13 10 2 -2
11 -15 -3 19 20 16 6 1
16 -13 0 26 28 22 11 3
22 -3 -7 29 42 39 23 13
27 9 -16 32 56 60 38 24
33 21 -25 34 71 80 54 36
39 33 -34 37 87 100 69 48
45 46 -44 39 101 120 85 60
51 64 -62 35 112 142 103 74
57 85 -81 28 121 164 123 91
63 105 -101 22 132 186 143 106
68 126 -121 15 141 209 162 122
74 146 -141 8 150 231 182 138
68 162 -169 -34 114 220 184 145
56 178 -199 -87 64 198 180 149
44 193 -230 -139 13 176 176 153
32 207 -260 -191 -37 154 172 157
20 223 -290 -243 -89 132 167 161
8 198 -311 -298 -155 70 131 140
-5 160 -328 -352 -226 -5 85 109
-18 122 -346 -407 -297 -78 37 79
-30 85 -363 -462 -367 -153 -9 49
-44 47 -381 -517 -438 -227 -55 18
-48 28 -360 -495 -430 -239 -71 2
-49 16 -326 -450 -396 -230 -79 -12
-50 3 -293 -404 -362 -221 -87 -24
-52 -10 -259 -358 -328 -212 -95 -37
-53 -23 -224 -312 -295 -203 -103 -50
-51 -25 -193 -270 -259 -183 -97 -52
-45 -22 -162 -230 -223 -159 -87 -48
-39 -20 -133 -189 -186 -136 -75 -45
-34 -17 -102 -149 -150 -112 -65 -40
-29 -15 -72 -108 -113 -89 -54 -36
-26 -15 -56 -88 -95 -76 -48 -34
-23 -18 -46 -73 -81 -68 -44 -33
-20 -21 -34 -59 -68 -59 -38 -31
-18 -23 -24 -45 -55 -51 -34 -29
-15 -26 -13 -30 -41 -43 -30 -28
-13 -27 -7 -23 -34 -37 -27 -27
-11 -27 -3 -17 -29 -34 -25 -25
-10 -27 2 -12 -24 -30 -24 -24
-8 -27 5 -7 -20 -27 -22 -23
-6 -27 9 -2 -15 -23 -20 -22
-5 -28 12 2 -12 -22 -19 -21
-4 -28 13 4 -9 -20 -19 -21
-4 -28 15 7 -7 -19 -18 -21
-3 -28 16 9 -5 -18 -18 -21
-3 -28 18 11 -2 -17 -18 -21
-2 -28 19 13 1 -16 -17 -20
-2 -28 20 14 2 -16 -16 -20
-3 -28 20 15 3 -15 -16 -20
-3 -28 21 17 5 -15 -15 -20
-3 -28 21 18 6 -15 -15 -20
-5 -29 22 19 7 -14 -14 -21
-7 -31 22 19 7 -14 -14 -21
-8 -32 23 20 8 -13 -14 -22
-10 -33 23 20 8 -13 -14 -22
-12 -34 23 20 8 -13 -14 -22
-13 -35 25 22 9 -12 -14 -23
-11 -35 26 24 10 -12 -14 -23
-10 -35 28 25 11 -11 -14 -23
-9 -35 29 27 11 -11 -14 -23
-8 -35 31 29 12 -11 -14 -23
-7 -35 33 31 14 -10 -13 -24
-6 -34 34 33 16 -8 -13 -24
-6 -34 36 36 18 -7 -13 -23
-5 -33 37 38 20 -6 -13 -23
-5 -33 39 40 22 -5 -13 -23
-4 -32 42 43 24 -4 -12 -22
-4 -32 44 46 25 -4 -12 -22
-3 -32 45 48 27 -3 -12 -21
-3 -32 47 50 28 -3 -12 -21
-3 -32 49 53 30 -3 -12 -21
-2 -31 51 55 32 -2 -11 -20
-2 -31 53 58 35 0 -11 -20
-2 -31 54 61 37 1 -11 -20
-2 -31 56 63 39 2 -11 -20
-2 -31 58 66 43 3 -11 -20
-2 -30 60 69 45 4 -10 -21
0 -30 62 71 48 5 -10 -21
0 -31 63 74 51 6 -10 -22
1 -31 65 77 53 7 -10 -22
1 -31 67 80 56 8 -10 -22
2 -32 69 82 58 9 -10 -23
2 -32 70 86 60 9 -10 -23
3 -32 71 88 62 9 -10 -23
3 -32 73 90 64 9 -10 -23
3 -32 74 93 66 9 -10 -23
5 -31 76 95 68 10 -10 -23
6 -30 78 97 70 12 -8 -23
8 -29 80 99 72 14 -7 -23
9 -29 82 102 74 16 -6 -23
11 -28 85 104 76 18 -5 -23
12 -28 86 105 77 19 -4 -22
10 -29 86 105 77 19 -4 -22
9 -31 86 105 76 19 -4 -21
8 -32 86 105 76 19 -4 -21
7 -34 86 105 76 19 -4 -21
6 -35 85 105 75 18 -4 -20
6 -34 85 105 74 18 -4 -20
6 -34 85 104 73 18 -4 -19
6 -33 85 104 73 18 -4 -19
6 -33 85 104 72 18 -4 -19
7 -32 82 102 70 18 -4 -18
6 -33 80 99 67 16 -4 -19
5 -33 79 96 64 15 -5 -19
5 -34 77 93 62 13 -5 -20
4 -34 75 90 59 12 -5 -20
3 -34 74 88 57 11 -6 -21
3 -33 73 85 54 10 -7 -21
3 -31 72 82 52 9 -7 -21
3 -30 71 80 50 9 -8 -21
3 -28 70 77 47 8 -8 -21
3 -27 68 75 45 7 -9 -21
3 -26 66 72 43 6 -9 -20
3 -25 65 70 42 5 -8 -19
3 -24 63 67 39 4 -8 -19
3 -23 61 64 37 3 -8 -18
4 -22 59 62 36 2 -7 -17
3 -23 58 60 34 2 -6 -17
3 -23 56 58 33 3 -6 -17
2 -24 55 56 32 3 -5 -17
2 -24 53 54 31 3 -5 -17
1 -24 51 51 29 4 -4 -16
1 -22 49 48 27 4 -4 -15
1 -21 47 45 25 4 -3 -14
1 -19 44 42 23 4 -3 -13
1 -17 42 38 21 4 -3 -12
1 -16 39 36 20 4 -2 -11
1 -15 36 33 18 4 -2 -11
1 -14 34 31 17 3 -2 -10
1 -14 32 28 15 3 -2 -10
1 -13 29 25 14 3 -2 -10
2 -12 27 23 13 2 0 -9
1 -12 24 20 11 1 0 -9
1 -12 22 17 10 0 1 -9
0 -12 20 14 9 0 1 -9
0 -12 17 11 8 -2 1 -9
-2 -12 16 10 7 -3 2 -8
-2 -12 15 8 6 -4 2 -8
-2 -12 15 7 6 -4 2 -8
-2 -12 14 5 5 -5 2 -8
-2 -12 14 4 5 -5 2 -8
-3 -12 13 3 4 -6 1 -8
-3 -11 12 1 4 -6 2 -8
-2 -11 11 0 3 -7 2 -8
-2 -10 10 -2 3 -7 3 -8
-2 -10 9 -3 3 -7 3 -8
0 -9 8 -4 2 -8 4 -7
0 -9 8 -4 2 -8 4 -7
0 -9 9 -4 1 -8 3 -7
0 -9 9 -4 0 -8 3 -7
0 -9 9 -4 0 -8 3 -7
-2 -8 10 -3 -2 -9 2 -7
-2 -8 11 -2 0 -8 2 -7
0 -8 13 0 1 -7 3 -6
0 -8 14 1 1 -7 4 -6
0 -8 15 2 2 -6 4 -6
1 -8 16 3 3 -5 5 -5
1 -7 16 3 3 -5 5 -5
0 -6 17 4 3 -4 5 -5
0 -6 18 5 3 -4 5 -5
0 -5 18 5 3 -4 5 -5
-2 -4 19 6 4 -3 5 -6
-3 -4 19 6 4 -3 5 -6
-5 -4 20 7 4 -3 4 -6
-6 -4 20 8 4 -3 4 -6
-7 -4 20 8 4 -3 4 -6
-8 -3 21 9 5 -4 3 -7
-8 -3 22 9 6 -4 3 -7
-8 -2 23 10 7 -3 3 -6
-8 0 24 11 7 -3 3 -6
-8 0 25 11 8 -3 3 -6
-7 2 25 12 9 -2 2 -5
-5 4 24 12 9 -2 3 -5
-4 7 22 11 9 0 4 -4
-2 9 20 10 9 0 4 -3
0 12 18 10 9 0 5 -3
1 13 17 9 9 1 6 -2
0 13 16 8 8 1 6 0
-2 12 14 7 7 1 6 1
-3 11 13 7 7 1 6 1
-4 11 12 6 6 1 6 2
-5 10 11 5 5 0 6 3
-3 11 11 5 5 1 7 5
-2 12 11 6 6 3 9 6
1 13 11 6 7 4 10 8
2 14 11 6 7 5 11 9
3 15 11 7 8 6 12 10
4 15 10 7 8 6 12 10
5 14 9 6 8 6 12 10
5 13 9 6 8 6 12 10
6 13 8 6 8 6 12 10
6 12 7 5 8 5 10 8
5 11 7 5 7 4 9 7
3 9 7 4 5 3 7 5
2 8 7 4 4 3 5 4
0 7 7 4 3 2 3 2
-2 4 6 3 2 1 2 1
-3 1 6 2 0 -2 0 0
-4 -4 6 1 -3 -3 -2 -2
-5 -8 6 1 -4 -5 -4 -3
-6 -11 6 0 -6 -6 -5 -4
-7 -13 5 -2 -7 -7 -6 -5
-7 -13 4 -3 -7 -7 -6 -5
-6 -13 3 -5 -8 -8 -6 -5
-5 -13 2 -6 -9 -8 -6 -5
-5 -13 1 -7 -9 -8 -6 -5
-4 -14 0 -8 -10 -9 -5 -6
-4 -14 0 -8 -10 -9 -5 -6
-4 -14 0 -9 -10 -9 -6 -6
-4 -14 0 -9 -10 -9 -6 -6
-4 -14 0 -9 -10 -9 -6 -6
-4 -13 -2 -10 -10 -9 -7 -5
-4 -14 -2 -10 -11 -9 -8 -7
-3 -16 -3 -11 -12 -10 -10 -8
-3 -17 -4 -12 -12 -11 -11 -10
-3 -18 -4 -12 -13 -11 -12 -11
-3 -19 -5 -13 -14 -12 -13 -12
-4 -20 -5 -13 -13 -11 -12 -10
-6 -21 -6 -12 -12 -10 -11 -9
-8 -22 -7 -12 -11 -9 -10 -7
-10 -23 -7 -12 -10 -8 -9 -6
-9 -23 -8 -8 -6 -4 -7 -4
-4 -21 -7 -2 1 2 -4 -3
1 -18 -6 5 8 7 0 0
5 -16 -5 10 14 12 3 2
10 -13 -4 16 20 17 5 4
15 -6 -6 22 31 30 15 11
22 6 -11 26 45 49 29 21
29 18 -16 31 58 67 44 32
35 29 -21 36 72 87 58 43
43 40 -26 42 86 105 72 53
49 55 -39 39 96 125 89 66
55 70 -58 31 104 144 107 80
61 86 -75 22 111 163 126 96
66 101 -94 14 119 183 143 110
72 116 -111 5 127 203 161 126
69 134 -134 -25 107 202 170 135
58 151 -159 -69 65 185 168 141
48 169 -185 -112 24 168 165 147
36 186 -211 -156 -18 150 164 152
25 203 -236 -200 -59 133 162 158
12 192 -261 -253 -118 84 135 145
-4 160 -285 -312 -191 10 90 116
-19 129 -310 -370 -263 -63 44 88
-34 97 -335 -430 -336 -136 -2 59
-50 65 -359 -489 -407 -208 -48 30
-58 43 -354 -493 -424 -239 -72 10
-59 26 -326 -457 -399 -238 -82 -5
-61 10 -299 -422 -373 -237 -93 -20
-63 -7 -272 -386 -349 -236 -103 -34
-65 -23 -244 -350 -324 -235 -113 -49
-63 -29 -215 -311 -293 -219 -112 -54
-58 -27 -184 -269 -256 -192 -102 -50
-53 -25 -153 -227 -219 -165 -91 -47
-48 -23 -121 -186 -182 -139 -80 -43
-43 -20 -91 -144 -145 -112 -69 -38
-37 -19 -70 -116 -120 -94 -61 -35
-33 -19 -58 -99 -104 -83 -56 -32
-29 -20 -45 -82 -89 -72 -50 -30
-25 -21 -31 -65 -72 -62 -44 -27
-21 -21 -19 -49 -57 -51 -38 -25
-19 -22 -11 -37 -47 -44 -34 -23
-17 -24 -6 -30 -41 -40 -32 -22
-16 -25 -2 -24 -35 -36 -29 -20
-15 -26 4 -18 -30 -32 -27 -19
-13 -28 9 -11 -24 -28 -25 -18
-10 -27 12 -7 -19 -25 -22 -17
-6 -23 14 -3 -16 -22 -20 -15
-2 -18 17 1 -12 -19 -18 -14
3 -14 19 4 -8 -16 -16 -13
8 -9 21 7 -4 -13 -13 -11
8 -10 23 9 -2 -11 -12 -10
2 -16 22 9 -2 -12 -14 -12
-4 -22 20 8 -3 -14 -15 -14
-9 -28 19 7 -3 -15 -16 -15
-14 -34 18 7 -3 -16 -18 -17
-17 -37 18 6 -4 -17 -19 -18
-15 -35 20 7 -3 -16 -19 -18
-13 -34 22 9 0 -15 -18 -17
-12 -33 24 10 1 -14 -17 -17
-10 -31 27 11 2 -13 -17 -17
-9 -30 28 12 4 -12 -16 -16
-9 -30 28 14 5 -12 -16 -16
-8 -29 29 16 7 -11 -15 -16
-8 -28 30 17 9 -10 -14 -16
-8 -28 30 19 11 -10 -14 -16
-7 -27 31 20 12 -9 -13 -17
-7 -27 33 22 14 -9 -13 -17
-7 -27 35 23 16 -9 -13 -17
-7 -27 36 24 18 -9 -13 -17
-7 -27 38 26 20 -9 -13 -17
-6 -28 39 28 22 -9 -14 -17
-6 -28 42 30 24 -8 -14 -17
-5 -28 43 33 26 -7 -13 -16
-4 -28 44 35 28 -7 -13 -15
-4 -28 46 37 30 -6 -13 -15
-3 -27 47 40 33 -5 -12 -14
-3 -27 48 43 35 -4 -12 -14
-3 -26 49 45 37 -3 -12 -15
-3 -26 50 47 39 -3 -12 -15
-3 -26 51 49 42 -2 -12 -15
-3 -25 53 51 44 0 -13 -16
-2 -25 55 53 46 1 -11 -15
1 -26 57 56 48 2 -10 -13
2 -27 59 58 50 3 -9 -12
3 -27 61 60 52 4 -7 -11
4 -28 63 63 54 5 -6 -10
4 -28 65 66 56 7 -6 -10
4 -27 67 70 59 8 -5 -10
4 -27 69 73 61 9 -4 -10
4 -27 71 76 63 11 -4 -10
5 -26 72 78 65 12 -3 -9
6 -24 72 79 65 12 -3 -9
7 -22 73 80 66 12 -4 -10
8 -20 74 80 66 12 -4 -11
9 -18 74 81 66 12 -4 -11
11 -17 75 84 67 12 -5 -12
13 -15 77 86 69 14 -3 -12
15 -14 79 88 70 15 -2 -11
17 -13 81 90 71 16 0 -10
19 -11 84 92 73 18 2 -10
19 -12 84 92 73 18 3 -9
15 -16 81 90 70 16 2 -9
11 -21 79 88 67 14 0 -10
7 -25 77 86 65 12 -2 -10
3 -29 75 84 62 10 -3 -10
1 -32 74 81 60 9 -4 -11
2 -30 74 79 59 9 -4 -11
3 -28 74 77 58 8 -5 -11
4 -26 74 76 57 7 -6 -11
5 -24 74 74 56 7 -6 -11
6 -22 73 73 55 6 -7 -12
6 -20 73 71 53 6 -7 -11
7 -18 73 70 52 6 -7 -10
7 -16 73 69 51 6 -7 -10
7 -14 73 67 49 6 -7 -9
8 -13 72 65 48 7 -6 -8
8 -13 70 63 46 7 -6 -8
8 -14 68 61 45 6 -5 -8
8 -15 67 59 44 5 -4 -8
8 -15 65 57 42 5 -4 -8
8 -16 64 54 40 4 -3 -8
8 -14 63 52 38 3 -3 -8
8 -12 61 50 36 2 -3 -8
8 -10 60 48 35 2 -3 -8
8 -8 59 46 33 1 -3 -8
7 -7 58 44 32 0 -2 -8
7 -7 57 42 32 1 1 -6
7 -7 56 39 31 2 3 -5
7 -7 55 37 30 2 5 -4
7 -7 54 35 30 3 7 -2
6 -7 52 34 28 4 8 0
6 -6 50 32 27 4 8 0
6 -5 48 30 25 3 8 0
5 -3 45 28 23 2 8 0
5 -2 43 26 21 2 8 0
4 0 40 24 19 1 8 0
4 0 38 22 17 0 8 0
4 0 37 20 16 0 8 0
4 1 35 18 14 -2 8 0
4 1 33 16 12 -3 8 0
5 2 32 14 11 -4 7 -2
5 2 32 13 11 -4 7 -2
5 2 32 12 11 -4 8 0
5 3 32 10 10 -4 9 1
5 3 32 9 10 -4 9 1
4 4 31 8 9 -3 10 2
4 4 30 7 7 -3 9 1
4 4 29 6 6 -4 9 1
3 3 28 5 5 -5 8 0
3 3 27 4 3 -5 7 -2
2 2 26 3 2 -6 6 -3
4 4 26 3 2 -6 6 -2
6 5 26 3 2 -6 7 -2
8 6 27 3 2 -5 8 0
10 8 27 3 2 -5 8 1
10 8 28 4 3 -4 9 2
8 6 28 4 3 -4 9 2
6 4 28 4 3 -4 9 1
3 2 28 5 2 -4 9 0
1 0 28 5 2 -4 9 0
-2 -3 28 6 1 -4 9 -2
-2 -3 29 7 1 -4 9 -2
-2 -2 30 7 2 -3 9 0
0 0 32 8 3 -2 9 1
0 0 33 9 3 -2 9 1
1 1 34 10 4 0 8 2
1 2 34 12 6 0 8 2
1 3 34 13 7 1 8 2
1 5 35 14 8 2 8 2
1 6 35 16 10 2 8 2
0 7 36 17 11 3 7 3
1 9 36 17 11 3 7 3
1 10 37 17 11 3 7 3
2 11 38 17 11 3 7 4
3 13 38 17 11 3 7 4
4 14 39 18 11 4 8 5
4 14 39 18 12 4 8 5
4 14 39 18 13 4 8 5
4 13 39 18 14 4 8 5
4 13 39 18 15 4 8 5
3 12 38 19 16 5 8 6
4 14 36 18 16 5 8 6
5 15 34 18 16 6 8 7
6 17 32 17 15 7 8 8
7 19 30 16 15 7 8 8
8 20 28 15 14 8 9 9
9 22 27 15 13 8 9 9
9 24 26 14 13 8 9 9
10 26 25 13 12 9 9 9
11 28 24 13 11 9 9 9
12 30 23 12 10 10 10 9
13 30 23 12 10 10 11 10
13 30 23 12 10 10 11 11
14 29 22 12 10 10 12 13
15 29 22 12 10 10 13 14
16 28 21 12 9 11 14 15
17 28 21 12 9 11 14 15
17 28 21 12 9 10 14 15
18 28 21 12 9 9 14 16
19 28 21 12 9 9 14 16
20 26 20 12 9 8 13 17
19 23 20 11 8 7 13 15
18 20 20 11 8 7 12 14
16 17 20 10 7 6 11 13
15 14 20 9 6 5 11 11
12 10 18 7 4 3 10 9
8 4 14 4 2 1 8 6
3 -3 11 1 0 -2 7 3
-2 -9 7 -3 -4 -5 6 -2
-7 -15 4 -6 -6 -7 4 -5
-10 -18 1 -8 -8 -9 3 -7
-8 -15 2 -8 -8 -9 2 -7
-6 -12 2 -8 -8 -8 1 -7
-4 -9 3 -7 -7 -7 0 -6
-2 -6 4 -7 -7 -7 -2 -6
1 -4 5 -6 -6 -6 -3 -5
1 -4 5 -6 -6 -7 -3 -5
2 -5 5 -6 -7 -7 -3 -5
3 -6 4 -7 -8 -8 -4 -5
3 -6 4 -7 -8 -9 -4 -5
4 -7 3 -8 -9 -10 -5 -5
4 -9 2 -8 -9 -10 -4 -3
4 -11 1 -8 -9 -9 -2 -2
4 -13 0 -8 -9 -8 0 1
4 -15 -2 -8 -9 -8 2 3
6 -17 -4 -8 -8 -7 3 4
8 -17 -6 -6 -6 -6 2 2
11 -17 -8 -4 -5 -5 1 1
13 -16 -11 -2 -3 -3 0 -2
16 -16 -13 1 0 -2 -2 -4
19 -12 -15 6 5 5 2 -2
24 -2 -15 14 17 19 13 9
28 8 -15 21 28 33 24 18
33 18 -15 29 39 48 34 27
37 27 -15 37 52 61 46 36
44 36 -21 43 63 78 59 47
52 47 -33 40 74 99 75 58
60 56 -47 38 86 120 92 69
68 65 -60 36 97 141 107 79
76 74 -72 35 108 162 123 91
81 90 -89 24 112 180 140 104
81 112 -111 2 104 192 156 121
81 135 -133 -21 96 204 173 138
81 157 -154 -44 88 218 188 154
81 180 -177 -65 78 230 204 172
74 188 -201 -106 40 207 197 173
53 173 -230 -173 -39 133 153 148
30 156 -259 -239 -120 57 109 123
9 141 -287 -307 -201 -18 64 99
-13 126 -316 -373 -282 -94 20 75
-28 104 -335 -416 -338 -149 -18 51
-35 74 -339 -426 -355 -178 -47 27
-43 46 -344 -434 -372 -205 -74 3
-50 16 -348 -443 -391 -233 -103 -21
-56 -13 -352 -451 -408 -261 -132 -45
-61 -31 -343 -440 -404 -270 -147 -60
-61 -29 -311 -395 -365 -248 -141 -62
-61 -27 -279 -349 -326 -227 -135 -63
-61 -25 -246 -304 -287 -204 -128 -65
-61 -24 -215 -259 -248 -183 -121 -67
-60 -22 -187 -219 -215 -162 -113 -66
-55 -23 -165 -188 -186 -142 -102 -59
-51 -24 -144 -157 -157 -121 -92 -52
-47 -25 -122 -126 -130 -101 -80 -45
-41 -26 -100 -95 -101 -80 -69 -37
-36 -27 -85 -71 -80 -65 -61 -31
-31 -28 -78 -61 -70 -57 -56 -29
-26 -29 -71 -51 -61 -50 -52 -26
-21 -31 -65 -39 -51 -41 -48 -23
-16 -32 -58 -29 -40 -34 -43 -20
-12 -32 -54 -21 -33 -29 -39 -18
-10 -28 -51 -16 -29 -27 -39 -18
-8 -24 -49 -12 -25 -26 -38 -18
-6 -20 -46 -8 -21 -24 -37 -18
-5 -16 -44 -3 -17 -22 -37 -18
-3 -13 -41 1 -14 -21 -36 -17
-3 -14 -41 3 -11 -19 -36 -17
-3 -15 -41 5 -8 -17 -36 -16
-3 -17 -41 7 -6 -15 -36 -15
-3 -18 -41 8 -3 -14 -36 -15
-3 -19 -40 10 0 -12 -35 -14
-2 -19 -39 12 2 -12 -35 -14
0 -19 -38 13 4 -12 -35 -13
1 -19 -37 15 6 -11 -35 -12
2 -19 -36 17 8 -11 -35 -12
3 -20 -35 18 10 -10 -35 -11
3 -20 -35 20 13 -7 -34 -10
3 -19 -35 22 15 -5 -33 -9
3 -18 -35 24 17 -2 -31 -8
3 -18 -35 25 19 1 -30 -7
3 -17 -34 27 21 3 -29 -6
3 -14 -34 27 21 3 -30 -7
4 -12 -35 27 20 3 -31 -8
5 -9 -36 28 19 3 -32 -9
5 -7 -36 28 19 3 -33 -10
6 -5 -37 29 18 3 -34 -11
5 -8 -37 29 18 2 -35 -12
5 -11 -37 30 18 1 -35 -12
4 -13 -37 31 18 0 -36 -13
3 -16 -37 31 18 -2 -37 -14
3 -18 -37 33 18 -3 -38 -15
6 -16 -35 38 20 -2 -38 -14
10 -14 -32 43 23 0 -38 -14
13 -12 -29 48 26 1 -38 -13
16 -11 -26 53 29 2 -38 -12
18 -9 -25 56 31 3 -37 -11
14 -11 -27 56 31 3 -38 -11
11 -13 -30 55 30 3 -38 -12
7 -15 -33 54 29 4 -39 -13
3 -16 -36 54 29 4 -40 -13
0 -18 -37 54 29 5 -41 -14
1 -17 -33 59 32 7 -40 -14
3 -17 -29 64 36 10 -39 -13
4 -16 -24 69 40 12 -38 -12
6 -15 -20 74 44 14 -37 -12
7 -14 -17 78 47 16 -36 -11
8 -16 -16 80 49 18 -35 -10
9 -17 -14 82 51 21 -33 -8
11 -19 -13 85 53 23 -32 -7
12 -20 -11 87 54 25 -30 -5
13 -22 -10 89 56 27 -29 -4
13 -19 -10 89 56 26 -31 -6
13 -17 -9 90 56 25 -34 -8
13 -14 -8 91 56 24 -36 -10
13 -12 -8 91 56 23 -38 -12
12 -10 -7 92 55 22 -40 -14
12 -10 -7 92 55 22 -40 -14
12 -10 -7 93 55 22 -40 -14
13 -10 -7 94 55 22 -40 -13
13 -10 -7 94 55 22 -40 -13
14 -10 -6 95 55 22 -40 -12
14 -10 -6 93 54 21 -41 -12
13 -11 -6 91 53 19 -43 -12
12 -12 -6 89 52 18 -44 -13
12 -12 -6 88 51 16 -45 -13
11 -13 -7 86 50 15 -46 -14
11 -12 -7 85 50 15 -45 -13
11 -10 -7 82 49 16 -43 -13
11 -9 -7 81 48 17 -41 -12
11 -7 -7 79 48 17 -39 -11
11 -6 -8 78 47 18 -38 -10
11 -7 -8 76 46 18 -38 -9
10 -8 -8 74 46 18 -38 -8
10 -9 -8 72 45 17 -38 -7
9 -11 -8 70 44 17 -38 -5
8 -12 -9 68 43 16 -37 -4
8 -10 -11 65 40 14 -38 -5
8 -8 -13 62 37 12 -39 -5
8 -7 -15 60 35 11 -40 -6
8 -5 -17 57 33 9 -43 -7
8 -3 -19 55 31 7 -44 -8
8 -3 -20 52 30 8 -43 -8
8 -2 -22 50 29 9 -43 -8
8 -2 -23 48 28 10 -41 -7
8 0 -25 45 27 12 -40 -7
8 1 -26 43 26 13 -39 -6
8 3 -26 40 25 12 -39 -6
8 5 -26 39 23 10 -39 -6
8 6 -26 37 22 9 -39 -6
8 8 -26 36 20 7 -39 -6
8 9 -27 33 19 6 -40 -7
6 6 -30 30 16 4 -40 -6
5 3 -34 26 13 1 -40 -6
3 0 -37 23 10 -2 -41 -5
2 -4 -41 19 7 -4 -41 -4
0 -6 -45 16 5 -6 -43 -3
0 -2 -47 13 4 -6 -44 -5
0 3 -49 10 2 -6 -46 -7
0 7 -50 8 1 -6 -47 -9
0 11 -52 5 -2 -6 -49 -11
0 13 -54 3 -3 -6 -50 -13
-2 8 -50 4 -3 -6 -50 -12
-2 3 -47 4 -3 -7 -50 -11
-3 -3 -44 5 -2 -7 -50 -10
-4 -8 -40 6 -2 -8 -50 -8
-5 -12 -37 7 0 -9 -49 -7
-5 -9 -39 4 -3 -9 -48 -6
-5 -7 -41 2 -5 -9 -47 -5
-4 -5 -44 0 -7 -10 -46 -4
-4 -2 -46 -4 -9 -10 -45 -3
-3 1 -48 -6 -11 -11 -44 -2
-4 -3 -45 -5 -11 -11 -45 -4
-6 -5 -41 -4 -11 -11 -47 -5
-7 -7 -38 -3 -11 -12 -48 -7
-9 -10 -35 -2 -11 -12 -50 -8
-10 -12 -32 0 -10 -13 -50 -10
-10 -9 -31 1 -9 -13 -47 -9
-10 -6 -30 1 -7 -13 -44 -8
-10 -3 -29 2 -6 -12 -39 -7
-10 1 -27 3 -4 -12 -36 -6
-9 4 -26 4 -3 -11 -33 -5
-8 4 -25 6 0 -8 -33 -5
-6 4 -23 8 2 -6 -33 -5
-5 4 -22 9 3 -4 -32 -5
-3 4 -20 11 5 0 -32 -5
-2 5 -19 13 7 2 -31 -6
-2 6 -16 14 9 2 -28 -5
-2 8 -13 15 10 3 -26 -3
-2 9 -10 16 12 3 -24 -2
-2 10 -8 17 13 4 -21 0
-2 12 -5 18 15 5 -19 2
-2 10 -4 19 16 5 -18 3
0 9 -3 19 17 6 -17 3
0 7 -2 20 18 6 -16 4
1 6 0 21 19 7 -15 5
2 5 1 22 20 8 -14 6
3 10 -2 20 18 8 -14 6
5 14 -4 19 17 8 -14 6
6 19 -6 17 15 7 -14 6
7 24 -8 16 14 7 -14 6
9 28 -10 14 12 6 -14 6
10 27 -9 15 13 7 -13 6
11 26 -8 15 15 9 -12 7
12 25 -7 16 16 10 -11 7
14 24 -5 17 17 11 -10 8
15 23 -4 18 19 13 -9 9
13 23 -6 14 16 10 -9 8
12 22 -8 11 14 8 -9 7
10 22 -9 8 11 5 -9 6
9 21 -11 5 8 2 -9 5
7 20 -13 2 6 0 -10 4
7 20 -12 3 7 2 -10 4
7 20 -10 5 9 4 -10 5
7 19 -9 6 10 5 -10 5
7 19 -8 7 11 7 -10 6
8 17 -6 9 13 9 -9 7
6 13 -5 8 11 7 -8 7
4 9 -4 6 9 5 -8 7
2 5 -3 5 8 3 -7 6
0 1 -2 4 6 1 -6 6
-3 -4 0 2 4 -2 -5 5
-3 -5 0 1 2 -3 -5 3
-3 -6 1 0 1 -4 -5 1
-3 -7 1 -2 -2 -5 -5 0
-3 -8 2 -3 -3 -7 -5 -3
-4 -9 3 -4 -5 -8 -6 -5
-4 -9 3 -5 -5 -8 -6 -5
-4 -10 3 -5 -5 -8 -6 -5
-4 -10 3 -6 -6 -8 -5 -5
-4 -11 3 -7 -6 -8 -5 -5
-5 -12 3 -8 -7 -7 -4 -6
-5 -13 4 -8 -8 -7 -4 -6
-6 -14 6 -8 -9 -7 -4 -7
-6 -15 7 -8 -10 -8 -4 -7
-7 -16 8 -8 -12 -8 -4 -8
-8 -17 10 -7 -13 -9 -5 -9
-8 -17 10 -7 -13 -9 -5 -9
-7 -17 10 -8 -13 -9 -5 -9
-6 -16 11 -8 -13 -9 -5 -9
-5 -16 11 -9 -13 -9 -5 -9
-4 -15 12 -10 -13 -8 -4 -9
-3 -15 12 -8 -12 -7 -4 -9
0 -16 12 -5 -10 -6 -4 -9
2 -16 12 -3 -9 -5 -4 -9
3 -17 12 1 -8 -3 -4 -9
5 -17 11 4 -4 1 0 -7
9 -11 13 10 6 12 9 0
12 -5 16 16 16 22 18 6
16 2 18 23 26 33 27 13
19 8 21 29 35 44 36 19
23 15 20 33 46 58 48 26
31 26 5 29 56 80 65 39
39 37 -11 24 66 103 84 52
48 49 -25 20 76 126 101 65
56 60 -40 15 87 148 119 77
62 73 -58 6 95 170 137 91
67 95 -83 -17 91 184 153 106
71 115 -109 -40 88 198 171 121
75 137 -135 -63 85 213 187 136
79 158 -159 -87 80 228 203 151
79 174 -185 -118 61 226 210 161
61 170 -212 -177 -14 162 175 150
43 164 -237 -235 -89 100 140 138
24 159 -264 -295 -164 37 105 127
6 154 -290 -353 -239 -25 71 114
-12 142 -312 -403 -305 -83 36 99
-22 104 -318 -425 -341 -128 2 66
-33 66 -324 -446 -377 -173 -33 34
-44 28 -330 -468 -412 -217 -67 3
-54 -10 -337 -489 -447 -261 -102 -29
-63 -39 -335 -496 -468 -291 -130 -56
-65 -40 -298 -447 -429 -270 -126 -60
-66 -41 -261 -398 -389 -247 -122 -65
-68 -43 -224 -349 -350 -226 -118 -69
-70 -45 -187 -300 -311 -204 -114 -74
-71 -45 -152 -254 -273 -183 -109 -77
-64 -39 -126 -218 -242 -160 -96 -70
-56 -34 -99 -182 -213 -137 -82 -63
-49 -29 -73 -146 -182 -114 -69 -57
-40 -24 -47 -110 -151 -92 -57 -50
-34 -20 -23 -79 -124 -72 -45 -44
-31 -20 -13 -65 -114 -62 -38 -39
-28 -20 -2 -51 -104 -53 -33 -36
-26 -20 10 -36 -94 -43 -27 -32
-23 -20 20 -22 -83 -33 -21 -28
-20 -21 29 -9 -75 -25 -16 -25
-18 -21 32 -4 -72 -22 -16 -25
-17 -21 34 2 -68 -19 -16 -25
-15 -21 37 7 -65 -17 -15 -25
-13 -21 39 12 -62 -14 -15 -25
-11 -20 43 16 -59 -11 -14 -26
-11 -21 43 19 -55 -9 -12 -24
-11 -22 43 22 -52 -7 -9 -22
-10 -23 44 25 -49 -5 -7 -20
-10 -24 44 28 -45 -3 -4 -18
-9 -25 45 31 -41 0 -2 -16
-9 -25 47 32 -38 0 -2 -16
-9 -25 48 34 -36 1 0 -15
-9 -24 50 36 -33 2 1 -15
-9 -24 52 37 -31 3 2 -14
-8 -23 54 39 -28 4 3 -13
-8 -23 54 40 -27 4 3 -13
-8 -23 55 42 -25 5 2 -14
-8 -23 55 43 -24 6 2 -14
-8 -23 56 45 -23 7 1 -15
-8 -23 57 46 -21 8 0 -16
-8 -22 59 48 -20 8 0 -16
-8 -20 60 49 -19 9 0 -16
-7 -19 62 51 -18 10 1 -16
-7 -18 64 53 -17 11 1 -16
-6 -16 66 55 -16 12 2 -15
-4 -16 69 58 -14 14 3 -15
-3 -15 71 61 -13 15 4 -14
0 -15 74 63 -11 17 5 -14
2 -14 76 66 -9 19 7 -13
4 -13 79 69 -7 21 8 -12
3 -15 79 69 -6 21 7 -13
1 -16 79 69 -4 20 5 -14
-2 -18 78 70 -2 19 3 -15
-3 -20 78 70 0 18 2 -17
-5 -22 77 71 2 17 0 -18
-4 -22 79 75 7 18 1 -17
-3 -22 81 78 12 20 2 -16
-2 -21 84 81 17 22 3 -15
0 -21 87 86 22 23 5 -14
1 -20 89 89 27 25 6 -13
1 -21 91 92 31 25 6 -13
0 -23 92 95 34 26 6 -13
0 -25 94 99 38 26 6 -13
-2 -26 96 102 43 27 6 -13
-3 -28 98 105 46 28 6 -14
-3 -28 98 108 47 29 6 -14
-3 -27 98 110 48 30 6 -14
-2 -26 98 113 49 31 6 -15
-2 -25 98 115 51 32 6 -15
