I II V1 V2 V3 V4 V5 V6
-21 -24 18 7 -15 -10 -20 -17
-21 -24 18 7 -15 -10 -20 -17
-20 -23 18 6 -15 -10 -20 -17
-19 -23 17 6 -15 -11 -20 -17
-18 -22 17 5 -15 -11 -20 -17
-18 -22 17 5 -15 -11 -20 -17
-17 -21 16 4 -16 -12 -20 -18
-18 -21 16 4 -16 -12 -20 -18
-19 -21 16 4 -16 -13 -20 -18
-20 -21 16 4 -16 -13 -20 -18
-21 -21 16 4 -16 -13 -20 -18
-22 -22 15 4 -17 -14 -20 -17
-22 -22 15 4 -17 -14 -20 -17
-22 -22 15 4 -17 -14 -21 -18
-22 -22 15 4 -17 -14 -21 -18
-22 -22 15 4 -17 -14 -21 -18
-23 -22 15 4 -16 -14 -22 -19
-22 -21 15 4 -16 -14 -22 -19
-21 -20 14 3 -16 -14 -22 -19
-20 -19 14 3 -16 -14 -22 -19
-19 -18 14 3 -16 -14 -22 -19
-18 -17 13 2 -16 -15 -23 -19
-18 -17 13 2 -16 -15 -23 -19
-18 -17 13 2 -16 -15 -22 -19
-18 -17 13 2 -16 -15 -22 -19
-18 -17 13 2 -16 -15 -22 -19
-18 -17 13 2 -16 -15 -21 -18
-18 -17 13 2 -16 -15 -21 -18
-18 -17 12 2 -16 -15 -21 -18
-18 -17 12 2 -16 -15 -21 -18
-18 -17 12 2 -16 -15 -21 -18
-19 -16 11 1 -16 -16 -21 -18
-18 -16 12 1 -16 -16 -21 -17
-17 -16 13 1 -16 -17 -21 -17
-16 -16 14 1 -16 -17 -21 -16
-15 -16 14 1 -16 -17 -21 -16
-14 -16 15 0 -17 -18 -22 -15
-15 -16 15 0 -17 -18 -21 -15
-16 -16 15 1 -16 -17 -21 -15
-17 -16 15 1 -16 -17 -20 -15
-17 -16 15 1 -16 -17 -20 -15
-17 -14 14 2 -15 -16 -19 -15
-15 -13 14 3 -14 -15 -18 -15
-13 -12 14 3 -13 -15 -18 -15
-11 -11 14 4 -12 -14 -17 -15
-10 -10 14 4 -11 -14 -17 -15
-9 -7 14 6 -10 -13 -16 -14
-8 -4 15 7 -9 -12 -15 -13
-8 -2 16 8 -8 -11 -14 -12
-7 2 17 9 -7 -10 -13 -11
-7 4 18 10 -7 -9 -13 -10
-6 5 19 11 -6 -8 -12 -9
-5 5 18 11 -6 -8 -12 -9
-4 5 18 12 -6 -9 -12 -9
-3 5 17 12 -6 -9 -12 -9
-3 5 17 12 -6 -9 -12 -9
-2 4 15 13 -5 -9 -12 -9
0 5 13 13 -4 -8 -11 -8
0 6 11 13 -2 -7 -9 -7
1 7 9 13 0 -6 -8 -6
1 7 8 13 1 -5 -7 -5
2 8 6 11 1 -4 -6 -4
3 8 4 9 0 -5 -7 -4
4 8 3 7 -2 -6 -8 -4
5 8 1 5 -3 -7 -9 -4
5 8 0 3 -4 -7 -9 -4
6 7 -2 2 -5 -9 -10 -4
6 6 -2 1 -6 -10 -11 -5
7 4 -2 0 -7 -12 -12 -6
7 3 -2 -2 -8 -13 -13 -7
7 2 -2 -3 -9 -14 -13 -8
7 1 1 -4 -10 -15 -14 -9
6 1 2 -4 -10 -15 -14 -9
5 2 4 -4 -10 -15 -14 -9
4 2 5 -4 -10 -15 -14 -9
3 2 6 -4 -10 -15 -14 -9
-2 2 7 -5 -9 -16 -16 -9
-5 0 7 -7 -10 -18 -18 -11
-9 -3 7 -8 -11 -20 -20 -13
-13 -5 7 -10 -12 -22 -22 -15
-16 -7 7 -11 -13 -24 -24 -17
-17 -8 8 -12 -14 -25 -25 -18
-17 -8 8 -12 -14 -25 -25 -17
-17 -9 8 -12 -15 -24 -24 -17
-17 -9 8 -12 -15 -24 -24 -16
-17 -9 8 -12 -15 -24 -24 -16
-16 -10 8 -11 -16 -23 -23 -15
-16 -9 8 -11 -16 -23 -23 -15
-15 -8 8 -11 -16 -23 -24 -16
-15 -7 8 -11 -16 -23 -24 -16
-15 -7 8 -11 -16 -23 -24 -16
-14 -6 9 -11 -16 -24 -25 -17
-15 -6 9 -12 -17 -25 -26 -18
-16 -6 8 -13 -17 -26 -27 -19
-17 -6 8 -14 -18 -27 -28 -20
-17 -6 8 -14 -18 -27 -28 -20
-18 -6 7 -15 -19 -28 -29 -21
-18 -7 7 -14 -18 -28 -28 -21
-18 -8 7 -14 -18 -27 -28 -21
-18 -9 7 -13 -17 -27 -27 -21
-18 -9 7 -13 -17 -27 -27 -21
-19 -6 10 -3 -8 -19 -23 -21
-19 1 15 9 3 -11 -20 -20
-19 6 19 19 13 -3 -16 -19
-19 12 23 30 22 7 -12 -18
-19 17 27 42 32 15 -9 -17
-7 28 28 48 45 29 5 -11
7 39 28 54 58 44 19 -5
21 51 28 61 71 59 32 1
34 62 28 67 85 74 47 7
48 73 28 73 98 89 60 13
64 107 -3 42 103 111 106 54
80 145 -38 5 107 135 154 98
96 182 -74 -32 111 157 202 142
112 219 -110 -69 115 181 251 186
129 256 -145 -106 119 203 299 230
123 241 -157 -133 92 173 285 229
114 220 -166 -157 59 134 265 223
106 198 -177 -183 27 96 244 216
98 177 -186 -208 -6 57 224 210
89 155 -196 -233 -37 19 202 203
74 135 -184 -236 -66 -19 149 170
59 114 -169 -237 -95 -56 93 132
44 93 -153 -238 -122 -94 36 95
28 72 -138 -239 -150 -131 -21 58
13 52 -122 -239 -179 -169 -77 20
6 39 -106 -214 -162 -156 -80 10
0 28 -89 -183 -140 -138 -76 4
-7 17 -72 -152 -117 -119 -71 -4
-13 6 -56 -121 -96 -101 -67 -11
-19 -6 -38 -91 -73 -82 -63 -18
-20 -9 -31 -78 -64 -75 -59 -19
-21 -10 -25 -69 -57 -69 -55 -20
-21 -11 -19 -59 -50 -63 -52 -21
-22 -12 -12 -50 -41 -56 -48 -22
-22 -13 -6 -40 -34 -50 -44 -23
-23 -15 -4 -36 -32 -48 -43 -25
-24 -16 -2 -34 -30 -46 -43 -26
-24 -18 0 -32 -28 -44 -41 -27
-25 -19 2 -29 -26 -43 -41 -28
-25 -20 3 -27 -24 -40 -41 -29
-26 -21 4 -26 -23 -39 -40 -30
-26 -21 4 -25 -23 -39 -40 -31
-26 -21 5 -24 -23 -39 -40 -32
-26 -21 5 -23 -23 -39 -40 -33
-26 -21 5 -23 -23 -39 -40 -34
-27 -22 6 -22 -23 -39 -40 -35
-27 -22 6 -22 -23 -38 -40 -35
-27 -22 7 -22 -22 -37 -39 -36
-27 -22 7 -22 -22 -36 -39 -36
-27 -22 7 -22 -22 -35 -39 -36
-28 -22 8 -21 -21 -34 -38 -37
-27 -22 8 -21 -20 -34 -38 -38
-26 -21 8 -20 -19 -34 -38 -38
-25 -21 8 -20 -18 -34 -38 -39
-24 -21 8 -20 -18 -34 -38 -39
-23 -20 9 -19 -17 -33 -39 -40
-23 -20 9 -19 -17 -33 -38 -40
-23 -20 9 -19 -17 -33 -37 -40
-23 -20 9 -19 -17 -33 -36 -40
-23 -20 9 -19 -17 -33 -36 -40
-24 -20 8 -19 -18 -32 -35 -40
-24 -20 8 -19 -18 -32 -35 -40
-24 -21 9 -18 -18 -32 -36 -40
-24 -21 9 -18 -18 -32 -36 -40
-24 -21 9 -18 -18 -32 -36 -40
-23 -21 10 -17 -18 -31 -37 -39
-23 -20 9 -17 -18 -31 -37 -39
-23 -18 8 -18 -18 -31 -37 -40
-23 -17 7 -18 -18 -31 -37 -40
-23 -16 7 -18 -18 -31 -37 -40
-22 -15 6 -19 -17 -31 -36 -41
-22 -16 6 -18 -16 -30 -36 -41
-22 -17 7 -17 -15 -29 -35 -41
-22 -18 7 -16 -14 -28 -35 -41
-22 -18 7 -15 -14 -28 -35 -41
-21 -19 8 -14 -13 -27 -34 -43
-21 -20 8 -13 -12 -26 -33 -43
-21 -20 8 -13 -11 -25 -32 -41
-21 -21 8 -12 -10 -24 -31 -41
-21 -21 8 -12 -10 -24 -30 -41
-20 -21 8 -11 -9 -23 -29 -40
-19 -20 7 -11 -9 -23 -29 -41
-19 -19 6 -11 -9 -23 -29 -43
-18 -18 5 -11 -9 -23 -29 -44
-18 -17 5 -11 -9 -23 -29 -44
-17 -16 4 -10 -7 -21 -28 -45
-16 -16 4 -9 -5 -18 -25 -45
-15 -16 4 -9 -3 -16 -23 -44
-14 -16 4 -8 1 -14 -21 -44
-14 -16 4 -8 3 -12 -19 -44
-12 -15 4 -6 4 -10 -18 -43
-11 -15 4 -4 5 -9 -18 -41
-10 -14 4 -2 6 -8 -18 -40
-9 -14 4 0 7 -7 -18 -39
-8 -14 4 2 7 -6 -18 -39
-6 -13 3 4 9 -4 -17 -37
-5 -12 2 5 11 -2 -14 -35
-4 -11 2 6 13 1 -12 -33
-3 -10 1 7 15 3 -10 -32
-2 -10 1 8 17 5 -8 -30
1 -9 0 10 19 7 -6 -29
2 -8 0 12 21 10 -5 -29
4 -8 0 14 23 12 -3 -28
6 -7 0 16 25 14 0 -28
7 -7 0 18 27 16 1 -28
9 -5 -2 20 30 19 4 -26
11 -4 -3 21 32 21 6 -25
13 -3 -4 22 34 24 9 -23
14 0 -6 24 37 26 11 -21
16 1 -7 25 39 29 14 -20
18 2 -8 27 43 32 17 -18
21 2 -9 30 46 35 20 -16
23 3 -10 32 48 37 23 -14
26 3 -11 34 51 40 26 -12
28 3 -11 36 54 44 29 -10
30 6 -13 37 56 46 32 -9
31 9 -14 38 59 49 35 -7
32 12 -15 39 61 51 37 -6
34 15 -17 40 64 54 40 -5
35 18 -18 42 66 56 44 -4
37 19 -19 43 68 58 46 -2
38 19 -20 45 69 59 49 1
40 19 -20 46 71 60 51 3
43 19 -21 47 73 62 53 5
44 19 -21 48 74 63 55 7
46 20 -22 49 75 65 57 9
48 22 -23 49 75 66 59 12
50 24 -24 48 76 67 61 14
52 25 -25 48 76 69 63 16
54 27 -26 48 76 70 65 18
55 29 -27 47 77 71 66 19
56 31 -27 47 78 72 68 21
57 33 -28 47 79 72 69 22
58 35 -28 47 80 73 70 23
59 37 -28 47 80 73 71 24
60 38 -29 48 81 74 72 25
60 37 -29 47 80 73 73 26
60 36 -29 46 80 73 73 27
60 35 -29 45 79 72 74 28
60 35 -29 44 79 72 74 29
58 35 -30 42 76 69 73 30
57 36 -28 38 73 66 70 29
56 38 -27 36 70 63 68 28
54 40 -26 33 67 60 65 27
53 42 -25 31 64 57 62 26
50 43 -24 28 61 54 59 24
47 42 -24 25 58 50 55 22
44 40 -24 23 55 46 52 20
39 39 -24 20 51 43 49 18
36 38 -24 17 48 38 45 16
33 37 -22 16 46 36 42 14
30 37 -19 15 44 33 38 13
27 36 -17 14 42 31 36 11
24 36 -14 13 39 28 33 9
21 36 -12 13 37 26 30 8
19 33 -11 12 35 23 27 7
17 29 -11 11 32 21 24 6
14 25 -10 10 30 18 22 5
12 22 -10 9 27 16 19 4
10 18 -10 9 25 13 16 3
8 17 -8 7 24 11 14 1
7 16 -6 6 23 9 12 -2
6 16 -4 4 22 7 9 -4
4 15 -2 2 21 5 7 -6
3 15 1 1 20 3 5 -8
1 13 2 0 18 1 3 -10
-2 11 2 -3 16 0 1 -11
-4 9 2 -4 14 -2 -2 -12
-5 8 2 -5 13 -4 -3 -14
-7 6 2 -6 11 -5 -5 -15
-8 5 3 -8 9 -7 -7 -16
-9 4 3 -9 8 -8 -8 -18
-10 4 3 -10 7 -10 -10 -19
-11 3 3 -12 5 -12 -12 -20
-11 3 3 -13 4 -13 -13 -21
-12 1 3 -14 3 -14 -14 -22
-12 0 3 -14 3 -14 -14 -22
-12 -3 3 -14 3 -14 -14 -22
-12 -5 3 -14 3 -14 -14 -22
-12 -6 3 -14 3 -14 -14 -22
-11 -7 4 -14 2 -14 -14 -21
-12 -7 4 -14 2 -14 -14 -21
-12 -7 5 -14 2 -14 -14 -21
-13 -7 5 -14 2 -14 -14 -21
-13 -7 5 -14 2 -14 -14 -21
-14 -7 6 -15 1 -15 -15 -20
-14 -6 6 -16 0 -16 -17 -21
-14 -5 5 -17 -2 -17 -18 -22
-14 -4 5 -18 -3 -18 -19 -23
-14 -4 5 -19 -4 -19 -20 -23
-14 -3 4 -20 -5 -20 -21 -24
-15 -3 4 -20 -5 -20 -21 -24
-15 -4 4 -20 -5 -20 -21 -24
-16 -4 4 -20 -5 -20 -21 -24
-16 -4 4 -20 -5 -20 -21 -24
-17 -5 5 -19 -5 -21 -21 -24
-17 -5 5 -19 -5 -21 -21 -24
-17 -5 5 -19 -4 -20 -21 -24
-17 -5 5 -19 -4 -20 -21 -24
-17 -5 5 -19 -4 -20 -21 -24
-17 -5 5 -18 -3 -19 -21 -24
-17 -6 5 -18 -3 -19 -21 -24
-17 -6 5 -18 -3 -19 -21 -24
-17 -7 5 -18 -3 -19 -21 -24
-17 -7 5 -18 -3 -19 -21 -24
-17 -8 6 -17 -4 -20 -20 -24
-17 -8 6 -17 -4 -20 -20 -24
-17 -8 6 -17 -3 -20 -20 -24
-17 -8 6 -17 -3 -20 -20 -24
-17 -8 6 -17 -3 -20 -20 -24
-18 -8 6 -17 -2 -20 -20 -24
-18 -8 6 -15 0 -20 -19 -23
-18 -8 7 -14 0 -19 -19 -23
-18 -8 7 -13 1 -19 -18 -22
-18 -8 7 -12 1 -19 -18 -22
-17 -8 8 -11 2 -18 -17 -21
-17 -8 8 -11 3 -18 -17 -21
-17 -8 8 -11 3 -17 -17 -21
-17 -8 8 -11 4 -17 -17 -21
-17 -8 8 -11 4 -17 -17 -21
-18 -7 7 -11 5 -16 -17 -20
-18 -7 7 -11 5 -16 -17 -20
-18 -7 7 -11 5 -16 -17 -20
-18 -7 7 -11 5 -16 -17 -20
-18 -7 7 -11 5 -16 -17 -20
-18 -8 8 -10 4 -16 -17 -21
-18 -8 8 -10 4 -16 -17 -21
-18 -8 8 -10 4 -16 -17 -21
-18 -8 8 -10 4 -16 -17 -21
-18 -8 8 -10 4 -16 -17 -21
-19 -9 7 -11 5 -15 -17 -20
-19 -9 7 -11 5 -14 -16 -20
-19 -9 7 -10 6 -14 -15 -20
-19 -9 7 -10 6 -13 -15 -20
-19 -9 7 -10 6 -13 -14 -20
-18 -10 8 -9 7 -12 -13 -21
-17 -9 8 -9 7 -12 -12 -20
-17 -8 8 -9 7 -12 -12 -19
-16 -8 8 -9 7 -12 -11 -19
-16 -7 8 -9 7 -12 -11 -18
-15 -6 9 -9 8 -12 -10 -17
-15 -6 9 -9 8 -12 -10 -17
-15 -6 9 -10 8 -12 -10 -17
-15 -6 9 -10 8 -12 -10 -17
-15 -6 9 -10 8 -12 -10 -17
-15 -6 9 -11 7 -12 -11 -17
-15 -6 9 -11 7 -12 -11 -17
-16 -6 8 -12 7 -12 -11 -17
-16 -6 8 -12 7 -12 -11 -17
-16 -6 8 -12 7 -12 -11 -17
-17 -6 7 -13 6 -13 -10 -17
-17 -7 8 -13 6 -13 -10 -16
-17 -8 9 -13 6 -13 -10 -16
-17 -9 9 -13 6 -13 -10 -15
-17 -10 10 -13 6 -13 -10 -15
-17 -11 11 -14 5 -14 -11 -14
-17 -11 10 -14 5 -14 -11 -15
-17 -11 10 -14 5 -14 -11 -15
-17 -11 9 -14 5 -14 -11 -16
-17 -11 9 -14 5 -14 -11 -16
-17 -11 8 -15 4 -15 -11 -17
-17 -10 8 -16 3 -16 -12 -17
-17 -9 8 -17 2 -16 -13 -18
-17 -9 8 -17 1 -17 -13 -18
-17 -8 8 -18 0 -17 -14 -18
-16 -7 7 -19 -2 -18 -15 -19
-16 -7 7 -19 -2 -18 -15 -19
-16 -8 7 -20 -2 -18 -15 -19
-16 -8 7 -20 -2 -18 -15 -19
-16 -8 7 -20 -2 -18 -15 -19
-16 -9 7 -21 -2 -18 -15 -18
-16 -9 7 -21 -2 -18 -14 -16
-16 -9 7 -21 -2 -18 -13 -15
-16 -9 7 -21 -2 -18 -13 -14
-16 -9 7 -21 -2 -18 -12 -13
-17 -8 8 -21 -2 -17 -11 -12
-17 -8 8 -21 -2 -17 -12 -12
-17 -8 8 -22 -2 -18 -12 -12
-17 -8 8 -22 -2 -18 -13 -12
-17 -8 8 -22 -2 -18 -13 -12
-17 -7 8 -23 -3 -19 -14 -13
-17 -7 8 -23 -3 -19 -15 -13
-17 -8 8 -23 -4 -19 -15 -14
-17 -8 8 -23 -4 -19 -16 -14
-17 -8 8 -23 -4 -19 -16 -14
-16 -9 8 -23 -5 -19 -17 -15
-17 -9 8 -23 -5 -19 -17 -15
-17 -9 8 -23 -5 -19 -16 -14
-18 -9 8 -23 -5 -19 -16 -14
-18 -9 8 -23 -5 -19 -16 -14
-19 -10 7 -24 -5 -18 -15 -13
-18 -9 7 -24 -5 -18 -15 -13
-17 -9 7 -24 -5 -18 -16 -14
-17 -8 7 -24 -5 -18 -16 -14
-16 -8 7 -24 -5 -18 -16 -14
-15 -7 6 -25 -5 -19 -17 -15
-15 -7 6 -25 -5 -19 -17 -14
-16 -7 6 -25 -5 -19 -17 -14
-16 -7 6 -25 -5 -19 -17 -13
-16 -7 6 -25 -5 -19 -17 -13
-17 -6 6 -26 -6 -20 -18 -12
-17 -7 6 -26 -6 -20 -18 -12
-17 -8 7 -26 -6 -20 -18 -12
-17 -9 7 -26 -6 -20 -18 -12
-17 -10 7 -26 -6 -20 -18 -12
-16 -11 8 -23 -7 -19 -17 -12
-16 -10 7 -19 -8 -20 -18 -12
-16 -10 7 -16 -8 -20 -18 -13
-16 -9 6 -12 -9 -21 -19 -13
-16 -9 6 -9 -9 -21 -19 -13
-16 -9 5 -7 -10 -22 -20 -14
-16 -10 5 -7 -10 -21 -20 -14
-16 -12 5 -7 -9 -21 -20 -14
-16 -13 5 -7 -9 -20 -20 -14
-16 -15 5 -7 -9 -20 -20 -14
-17 -15 6 -7 -8 -19 -20 -14
-17 -14 6 -7 -8 -19 -20 -14
-17 -12 5 -7 -8 -19 -20 -14
-17 -11 4 -7 -8 -19 -20 -14
-17 -9 4 -7 -8 -19 -20 -14
-17 -8 3 -7 -8 -18 -20 -15
-17 -8 4 -7 -8 -18 -20 -15
-17 -8 5 -7 -8 -18 -20 -14
-17 -8 6 -7 -8 -18 -20 -13
-17 -8 7 -7 -8 -18 -20 -13
-16 -9 8 -8 -9 -18 -19 -12
-16 -9 8 -8 -9 -18 -19 -12
-16 -9 8 -8 -9 -18 -19 -12
-16 -9 8 -8 -9 -18 -19 -12
-16 -9 8 -8 -9 -18 -19 -12
-15 -10 7 -8 -10 -18 -19 -12
-15 -10 7 -8 -10 -18 -19 -12
-16 -10 8 -8 -10 -18 -19 -12
-16 -10 8 -8 -10 -18 -19 -12
-16 -10 8 -8 -10 -18 -19 -12
-17 -9 9 -8 -10 -18 -20 -11
-16 -8 9 -8 -10 -17 -20 -11
-15 -7 9 -7 -10 -16 -20 -11
-15 -6 9 -7 -10 -16 -20 -11
-14 -5 9 -7 -10 -15 -20 -11
-13 -3 8 -6 -9 -14 -19 -10
-13 -2 9 -5 -9 -13 -18 -9
-12 1 10 -3 -8 -12 -17 -8
-11 3 11 -2 -7 -11 -16 -8
-11 5 12 0 -7 -10 -15 -7
-10 6 13 1 -6 -9 -14 -6
-10 5 13 2 -4 -8 -13 -5
-10 4 14 3 -3 -6 -12 -4
-10 3 15 4 0 -5 -11 -4
-10 2 15 5 1 -4 -10 -3
-8 1 16 6 2 -3 -9 -2
-7 1 14 6 2 -3 -9 0
-5 1 13 7 3 -2 -8 1
-4 1 11 8 4 0 -7 1
-2 1 10 8 4 0 -7 2
0 3 9 8 5 1 -6 3
0 4 7 7 4 1 -6 3
1 6 6 5 3 0 -6 3
1 7 4 3 2 0 -6 3
1 9 3 1 1 0 -6 3
2 10 2 0 0 -2 -6 4
2 10 2 0 0 -2 -6 4
2 10 1 -2 -2 -2 -7 4
2 10 1 -2 -3 -2 -7 4
2 10 1 -2 -3 -2 -7 4
3 8 0 -3 -4 -3 -8 5
3 6 0 -3 -5 -4 -9 5
3 4 0 -4 -6 -5 -10 5
3 2 0 -5 -6 -6 -10 5
3 -2 0 -5 -7 -7 -11 5
3 -3 0 -6 -8 -8 -12 4
1 -2 2 -6 -9 -8 -12 3
-2 1 4 -7 -10 -9 -13 1
-4 2 5 -7 -10 -10 -14 0
-7 3 7 -7 -11 -10 -14 -2
-9 3 8 -8 -12 -11 -15 -3
-11 0 8 -9 -14 -12 -16 -3
-13 -3 8 -10 -15 -13 -17 -4
-15 -6 8 -11 -17 -14 -18 -4
-17 -9 8 -12 -18 -15 -19 -4
-18 -10 8 -13 -19 -16 -20 -5
-18 -10 8 -13 -19 -16 -20 -5
-18 -10 8 -12 -19 -16 -20 -6
-18 -10 8 -12 -19 -16 -20 -7
-18 -10 8 -12 -19 -16 -20 -7
-19 -9 8 -11 -20 -16 -21 -8
-19 -9 8 -11 -20 -16 -21 -8
-19 -9 8 -12 -20 -16 -22 -9
-19 -9 8 -13 -20 -16 -22 -9
-19 -9 8 -13 -20 -16 -22 -9
-19 -10 8 -14 -20 -17 -23 -10
-20 -10 8 -14 -20 -17 -23 -10
-21 -10 8 -14 -21 -17 -23 -9
-21 -10 8 -14 -21 -17 -23 -9
-22 -10 8 -14 -21 -17 -23 -9
-23 -10 8 -13 -22 -16 -23 -8
-23 -10 8 -12 -21 -15 -23 -8
-22 -9 8 -11 -19 -14 -23 -8
-22 -9 8 -11 -18 -13 -23 -8
-22 -9 8 -10 -17 -12 -23 -8
-21 -6 12 1 -9 -5 -20 -9
-21 0 20 18 5 6 -16 -9
-21 4 28 34 18 17 -12 -9
-21 8 36 51 31 28 -7 -9
-21 13 45 68 44 38 -3 -9
-9 26 40 71 54 53 13 1
11 45 26 65 63 68 36 19
30 64 12 58 71 84 61 36
50 82 -4 51 79 100 85 55
69 102 -18 44 88 115 108 72
82 130 -43 19 96 136 148 106
93 164 -73 -18 103 160 198 151
103 199 -105 -56 110 184 250 195
113 234 -137 -93 117 207 301 240
123 269 -169 -131 125 232 351 285
119 264 -183 -160 95 202 331 282
104 230 -186 -187 38 135 260 245
89 196 -189 -213 -18 66 189 209
72 162 -192 -239 -74 -3 118 172
57 129 -194 -265 -132 -71 47 135
45 103 -186 -265 -158 -107 6 107
34 84 -166 -245 -165 -119 -15 87
25 64 -147 -226 -172 -133 -35 65
15 45 -128 -206 -178 -146 -56 45
6 25 -108 -187 -185 -158 -76 24
-2 14 -92 -166 -175 -153 -82 13
-5 9 -76 -143 -151 -132 -77 8
-9 3 -61 -120 -127 -111 -71 3
-13 -4 -46 -98 -103 -91 -65 -3
-17 -9 -30 -75 -78 -69 -60 -7
-19 -12 -21 -61 -65 -58 -55 -10
-20 -13 -16 -54 -60 -53 -51 -10
-21 -14 -11 -47 -55 -48 -46 -11
-22 -15 -6 -39 -49 -43 -41 -11
-23 -16 -2 -32 -44 -38 -36 -11
-24 -17 2 -28 -40 -35 -34 -12
-24 -17 2 -27 -40 -35 -34 -14
-24 -17 3 -26 -39 -34 -35 -16
-24 -17 3 -25 -39 -34 -35 -17
-24 -17 3 -24 -39 -34 -35 -19
-25 -16 4 -23 -38 -33 -36 -20
-25 -17 5 -21 -38 -32 -36 -20
-25 -18 6 -19 -37 -31 -36 -21
-25 -19 6 -18 -36 -30 -36 -21
-25 -20 7 -16 -36 -29 -36 -21
-24 -21 8 -15 -35 -28 -35 -22
-24 -21 8 -15 -35 -28 -35 -22
-24 -21 9 -15 -35 -27 -34 -22
-24 -21 9 -15 -35 -26 -34 -22
-24 -21 9 -15 -35 -26 -34 -22
-24 -20 10 -15 -34 -25 -33 -23
-24 -20 10 -14 -34 -25 -33 -23
-24 -21 11 -13 -33 -25 -33 -24
-24 -22 11 -12 -33 -25 -33 -24
-24 -22 11 -11 -33 -25 -33 -24
-24 -23 12 -10 -32 -24 -33 -25
-24 -23 12 -10 -32 -24 -32 -25
-24 -22 11 -10 -33 -23 -31 -24
-24 -22 10 -10 -33 -23 -31 -23
-24 -22 10 -10 -33 -23 -30 -23
-24 -21 9 -11 -34 -22 -29 -22
-24 -21 9 -11 -34 -22 -29 -22
-23 -22 10 -10 -33 -21 -29 -22
-22 -23 10 -10 -33 -20 -29 -22
-22 -23 10 -10 -33 -20 -29 -22
-21 -24 11 -9 -32 -19 -30 -23
-21 -23 11 -9 -32 -19 -30 -23
-20 -21 11 -9 -31 -18 -29 -23
-19 -20 11 -9 -31 -17 -28 -23
-19 -19 11 -9 -31 -17 -28 -23
-18 -18 11 -8 -30 -16 -27 -24
-18 -19 11 -7 -30 -16 -27 -24
-18 -20 11 -6 -30 -15 -27 -24
-18 -20 11 -6 -30 -15 -27 -24
-18 -21 11 -5 -30 -15 -27 -24
-19 -22 11 -4 -30 -14 -26 -24
-18 -22 11 -3 -28 -13 -24 -23
-17 -21 11 -2 -26 -12 -22 -22
-17 -21 11 -2 -25 -12 -21 -22
-16 -21 11 0 -23 -11 -19 -21
-15 -20 11 1 -22 -10 -18 -20
-15 -19 11 1 -22 -10 -18 -20
-14 -18 11 2 -21 -10 -18 -21
-14 -18 11 2 -21 -10 -18 -22
-14 -17 11 2 -21 -10 -18 -22
-13 -16 10 3 -20 -8 -17 -23
-13 -15 10 4 -18 -6 -16 -22
-12 -14 9 5 -17 -3 -14 -21
-12 -14 8 6 -16 0 -13 -21
-12 -13 8 7 -14 2 -12 -20
-11 -12 7 9 -13 5 -10 -19
-10 -12 7 11 -11 7 -8 -18
-8 -12 7 13 -9 9 -6 -17
-7 -12 7 15 -8 11 -4 -16
-6 -12 7 17 -6 13 -2 -15
-5 -12 6 18 -5 16 0 -14
-4 -10 6 18 -4 18 0 -14
-2 -8 5 19 -3 20 1 -14
0 -6 4 20 -2 22 2 -14
1 -4 4 20 0 24 2 -14
2 -3 3 22 2 26 4 -15
3 -5 3 25 6 29 7 -14
5 -6 3 29 10 32 10 -13
6 -7 3 32 13 34 13 -12
7 -9 3 35 17 37 16 -11
9 -9 4 37 20 40 19 -9
11 -7 3 39 22 43 21 -7
13 -5 2 42 25 46 24 -4
15 -3 1 44 27 49 27 -2
17 0 0 46 29 51 29 1
20 1 -2 48 32 54 32 3
22 2 -2 50 35 57 35 5
24 4 -3 52 38 61 38 7
26 5 -4 54 42 64 42 9
28 6 -4 56 45 67 45 11
30 8 -5 59 48 70 48 13
33 10 -5 61 52 73 52 15
36 13 -6 63 55 77 55 18
38 15 -7 65 58 80 58 21
42 17 -7 67 62 84 62 23
44 19 -8 68 64 87 65 26
45 20 -9 69 66 89 67 28
46 21 -11 71 68 91 70 30
46 21 -12 72 69 93 73 32
47 22 -13 73 71 94 75 34
48 23 -14 74 72 96 77 36
49 24 -15 74 72 96 78 36
50 25 -15 73 72 97 79 36
51 26 -16 72 72 98 80 37
52 27 -17 72 72 98 81 37
53 28 -18 71 73 99 82 38
53 30 -18 71 73 99 82 39
54 31 -18 71 73 99 82 40
55 33 -18 71 73 99 82 42
55 35 -18 71 73 99 82 43
56 36 -18 69 72 98 82 44
55 37 -18 67 70 96 82 44
55 38 -19 64 68 95 82 44
54 39 -20 61 66 93 82 44
53 40 -20 59 64 91 82 44
51 42 -21 57 61 89 80 45
49 40 -21 55 58 85 76 44
47 39 -20 54 55 81 73 44
45 37 -19 52 52 78 70 43
43 36 -19 50 49 74 66 42
39 35 -18 48 46 71 63 40
37 35 -16 46 44 68 60 39
34 35 -15 44 42 65 58 38
31 35 -14 42 38 61 55 37
29 35 -12 39 36 58 52 36
26 34 -11 36 33 54 48 34
24 32 -9 34 29 50 44 31
22 30 -8 32 25 46 39 29
19 28 -6 29 21 40 34 26
17 26 -4 27 17 36 30 23
15 24 -3 25 15 32 26 21
13 23 -2 23 13 30 24 19
11 22 0 22 11 28 22 18
9 21 1 21 9 26 20 17
7 20 2 19 7 24 18 15
5 19 3 18 5 21 15 14
4 17 4 17 3 19 12 12
4 16 5 17 1 16 10 10
3 15 6 16 -2 13 7 8
2 13 7 15 -4 11 4 6
1 12 8 14 -5 9 2 4
0 10 8 13 -6 7 1 3
-2 8 8 12 -7 6 0 2
-3 6 9 10 -9 5 -3 1
-4 4 9 9 -10 3 -4 0
-5 3 10 8 -11 2 -5 -2
-6 3 10 8 -12 0 -7 -3
-7 3 10 7 -13 -2 -8 -4
-8 2 10 6 -15 -3 -9 -5
-9 2 10 6 -16 -5 -11 -6
-10 1 11 5 -17 -6 -12 -7
-10 1 11 4 -17 -6 -13 -8
-10 1 11 4 -17 -6 -13 -8
-11 1 11 3 -17 -6 -14 -9
-11 1 11 2 -17 -6 -15 -10
-12 0 11 1 -17 -7 -16 -11
-12 0 11 0 -18 -9 -16 -11
-12 -2 10 -2 -19 -10 -16 -11
-13 -3 9 -3 -21 -11 -17 -11
-13 -3 9 -4 -22 -13 -17 -11
-14 -4 8 -5 -23 -14 -18 -12
-14 -4 8 -5 -23 -14 -18 -12
-14 -5 8 -5 -23 -14 -18 -12
-14 -6 8 -5 -23 -14 -19 -12
-14 -6 8 -5 -23 -14 -19 -12
-14 -7 9 -5 -22 -13 -20 -11
-14 -7 9 -4 -22 -13 -20 -11
-14 -8 9 -3 -21 -12 -20 -11
-13 -9 9 -2 -20 -11 -19 -10
-13 -9 9 0 -20 -11 -19 -10
-12 -10 10 1 -19 -10 -18 -9
-12 -7 10 0 -19 -11 -18 -11
-12 -5 10 0 -19 -12 -19 -12
-11 -3 10 -2 -19 -14 -20 -14
-11 0 10 -3 -19 -15 -20 -16
-10 2 9 -4 -20 -16 -21 -17
-10 0 9 -4 -20 -16 -22 -17
-11 -3 9 -3 -20 -16 -22 -16
-12 -5 9 -2 -20 -16 -23 -15
-12 -6 9 -2 -20 -16 -24 -15
-13 -8 9 0 -20 -16 -25 -14
-13 -8 9 0 -20 -16 -24 -14
-13 -8 9 0 -20 -15 -24 -14
-13 -8 9 0 -19 -14 -23 -14
-13 -8 9 0 -19 -14 -22 -14
-14 -8 10 0 -18 -13 -21 -13
-14 -7 10 0 -18 -13 -21 -14
-14 -6 10 0 -18 -13 -22 -15
-14 -5 10 1 -18 -13 -23 -16
-14 -4 10 1 -18 -13 -23 -17
-15 -3 10 2 -18 -13 -24 -18
-15 -4 10 2 -18 -13 -24 -18
-15 -4 10 3 -17 -12 -23 -18
-14 -5 10 4 -16 -11 -22 -17
-14 -6 10 4 -16 -11 -22 -17
-13 -7 11 5 -15 -10 -21 -16
-13 -7 11 5 -14 -10 -21 -16
-13 -6 11 6 -14 -10 -20 -16
-13 -5 11 7 -13 -10 -19 -16
-13 -5 11 7 -12 -10 -19 -16
-13 -4 11 8 -11 -9 -18 -15
-13 -5 11 8 -10 -8 -18 -15
-13 -5 11 8 -10 -7 -18 -15
-13 -6 11 9 -9 -6 -17 -14
-13 -7 11 9 -8 -5 -17 -14
-14 -8 12 10 -7 -4 -16 -13
-14 -8 12 10 -7 -4 -16 -13
-14 -8 12 10 -7 -4 -16 -13
-14 -7 12 10 -7 -5 -16 -13
-14 -7 12 10 -7 -5 -16 -13
-13 -6 12 10 -7 -6 -17 -14
-13 -6 12 10 -7 -5 -16 -13
-13 -6 12 10 -6 -5 -15 -13
-12 -6 12 10 -5 -4 -14 -12
-12 -6 12 10 -5 -3 -13 -11
-11 -7 12 11 -4 -2 -12 -10
-11 -7 12 10 -4 -3 -13 -10
-11 -6 11 10 -5 -3 -13 -11
-11 -5 10 9 -6 -4 -14 -12
-11 -5 10 8 -6 -5 -15 -12
-11 -4 9 7 -7 -6 -16 -13
-11 -4 9 7 -7 -6 -16 -13
-11 -3 9 7 -7 -6 -16 -13
-11 -2 9 6 -7 -6 -16 -13
-11 -2 9 6 -7 -6 -16 -13
-11 0 9 5 -8 -7 -17 -14
-11 -2 10 5 -8 -7 -16 -13
-11 -4 10 5 -7 -6 -15 -12
-11 -5 11 5 -6 -5 -14 -11
-11 -7 12 5 -6 -5 -13 -10
-11 -7 13 6 -5 -4 -12 -9
-11 -5 12 5 -5 -5 -12 -9
-10 -2 12 5 -6 -7 -13 -9
-9 1 11 4 -7 -8 -14 -10
-9 4 10 3 -7 -10 -14 -10
-8 6 9 2 -8 -11 -15 -11
-8 3 9 2 -8 -11 -15 -11
-8 1 9 2 -8 -11 -15 -11
-8 -2 9 1 -9 -11 -16 -11
-8 -4 9 1 -9 -11 -16 -11
-8 -6 9 0 -10 -11 -17 -12
-8 -6 9 0 -10 -11 -17 -12
-9 -5 9 -2 -10 -11 -17 -12
-10 -4 8 -3 -11 -12 -17 -11
-10 -4 8 -3 -11 -12 -17 -11
-11 -3 7 -4 -12 -13 -18 -10
-11 -4 7 -4 -12 -13 -18 -10
-11 -5 7 -3 -12 -13 -17 -10
-11 -7 7 -2 -11 -13 -16 -10
-11 -8 7 -2 -11 -13 -16 -10
-11 -9 8 0 -10 -13 -15 -10
-11 -9 8 0 -10 -13 -15 -10
-11 -9 8 -2 -10 -13 -15 -10
-11 -9 8 -3 -10 -14 -16 -10
-11 -9 8 -3 -10 -14 -16 -10
-11 -9 7 -4 -11 -15 -17 -10
-11 -9 7 -4 -11 -15 -18 -11
-11 -8 6 -4 -12 -15 -18 -12
-11 -7 5 -5 -13 -16 -19 -13
-11 -7 5 -5 -13 -16 -20 -14
-11 -6 4 -6 -14 -17 -21 -15
-11 -6 4 -6 -14 -17 -21 -14
-11 -7 4 -6 -14 -17 -21 -14
-11 -8 4 -6 -14 -17 -20 -13
-11 -8 4 -6 -14 -17 -20 -12
-12 -9 5 -7 -14 -18 -19 -11
-12 -9 5 -7 -14 -18 -19 -11
-11 -9 5 -7 -14 -18 -19 -11
-10 -9 5 -6 -13 -17 -19 -11
-10 -9 5 -6 -13 -17 -19 -11
-9 -8 6 -5 -12 -16 -18 -11
-9 -8 6 -5 -12 -16 -18 -11
-9 -8 6 -6 -12 -17 -18 -11
-9 -8 6 -7 -13 -18 -19 -11
-9 -8 6 -7 -13 -18 -19 -11
-8 -7 5 -8 -14 -19 -20 -12
-8 -7 5 -8 -14 -19 -20 -12
-8 -7 5 -8 -14 -19 -20 -12
-8 -7 6 -8 -14 -19 -20 -11
-8 -7 6 -8 -14 -19 -20 -11
-9 -7 7 -7 -13 -18 -19 -10
-9 -8 7 -7 -13 -18 -19 -11
-9 -10 7 -7 -13 -18 -19 -11
-10 -11 7 -7 -13 -18 -18 -12
-10 -13 7 -7 -13 -18 -18 -13
-11 -14 7 -6 -14 -17 -17 -14
-11 -11 7 -6 -14 -17 -17 -14
-11 -8 6 -6 -14 -17 -18 -14
-11 -6 5 -6 -13 -18 -19 -14
-11 -3 5 -6 -13 -18 -19 -14
-10 0 4 -7 -12 -19 -20 -15
-9 0 4 -7 -12 -19 -20 -14
-9 -2 4 -7 -12 -18 -19 -13
-8 -3 4 -7 -12 -17 -18 -12
-7 -3 4 -7 -12 -17 -18 -11
-6 -4 5 -6 -11 -16 -17 -10
-5 0 5 -4 -10 -15 -16 -9
-3 3 5 -2 -9 -13 -16 -8
-2 6 6 1 -8 -12 -15 -7
1 9 6 2 -7 -10 -14 -6
2 11 7 4 -6 -9 -13 -5
2 10 7 4 -6 -9 -13 -6
2 9 7 4 -6 -9 -13 -6
1 7 7 3 -6 -9 -13 -7
1 6 7 3 -6 -9 -13 -8
0 5 7 2 -5 -10 -12 -9
2 8 7 3 -3 -8 -10 -8
4 10 7 5 -2 -6 -7 -7
6 12 7 6 1 -5 -5 -6
8 15 7 8 2 -3 -3 -5
10 17 7 9 4 0 0 -4
10 16 4 6 3 -2 -2 -4
10 14 1 3 2 -3 -2 -4
10 13 -3 0 1 -4 -3 -3
10 11 -6 -4 0 -5 -4 -3
11 10 -8 -7 -2 -6 -5 -2
11 10 -8 -7 -3 -7 -5 -2
11 10 -8 -7 -3 -8 -6 -3
12 9 -7 -7 -4 -9 -6 -3
12 9 -7 -7 -5 -10 -7 -4
13 8 -6 -6 -6 -11 -8 -5
13 7 -6 -6 -6 -11 -8 -5
12 6 -6 -7 -7 -11 -8 -6
12 5 -6 -7 -7 -12 -9 -6
11 3 -6 -8 -8 -12 -9 -7
10 2 -5 -9 -9 -13 -10 -8
7 1 -4 -9 -10 -14 -11 -8
4 0 -3 -9 -11 -15 -13 -8
1 -2 -2 -10 -12 -16 -14 -8
-3 -3 1 -10 -14 -17 -16 -8
-6 -4 2 -11 -15 -18 -17 -8
-7 -4 2 -11 -15 -18 -17 -9
-7 -5 2 -11 -15 -19 -17 -10
-8 -5 2 -12 -16 -19 -18 -11
-9 -6 2 -12 -16 -20 -18 -13
-10 -7 2 -13 -17 -21 -19 -14
-10 -7 2 -13 -17 -21 -19 -14
-10 -7 2 -14 -17 -22 -19 -14
-10 -8 2 -14 -18 -22 -20 -14
-10 -8 2 -15 -18 -23 -20 -14
-10 -9 2 -16 -19 -24 -21 -14
-10 -9 2 -16 -19 -23 -21 -14
-10 -8 2 -16 -19 -23 -21 -14
-10 -8 2 -16 -19 -22 -20 -13
-10 -7 2 -16 -19 -21 -20 -13
-11 -6 2 -15 -18 -20 -19 -12
-11 -6 2 -15 -18 -21 -20 -13
-11 -6 2 -16 -19 -22 -20 -14
-11 -6 2 -16 -19 -23 -21 -15
-11 -6 2 -17 -20 -25 -22 -16
-11 -7 3 -18 -21 -26 -23 -17
-11 -5 3 -15 -18 -23 -22 -16
-12 -4 3 -13 -15 -20 -20 -16
-12 -2 3 -11 -12 -17 -19 -15
-13 0 3 -8 -9 -14 -17 -14
-13 3 5 0 -2 -8 -15 -13
-10 8 15 20 15 6 -9 -13
-6 13 25 40 31 19 -4 -13
-3 19 35 61 48 32 3 -14
2 24 46 80 64 46 9 -14
10 36 47 89 77 61 23 -7
27 65 21 61 84 79 58 24
46 94 -6 33 89 99 94 54
64 122 -31 6 95 117 129 85
82 151 -57 -22 101 136 164 114
97 178 -85 -50 105 152 198 145
101 197 -114 -76 104 162 230 177
106 217 -144 -104 103 173 261 209
110 236 -174 -131 102 183 292 240
114 256 -204 -158 101 193 323 272
114 260 -224 -184 82 180 323 283
98 224 -216 -208 20 104 242 238
81 187 -208 -233 -43 28 162 193
64 151 -200 -258 -105 -49 81 148
48 114 -192 -282 -168 -124 1 103
34 84 -181 -294 -208 -178 -59 67
27 66 -162 -264 -193 -168 -63 53
21 49 -144 -234 -177 -157 -68 38
15 31 -124 -205 -160 -147 -73 24
8 15 -106 -176 -145 -137 -77 10
3 2 -89 -149 -129 -126 -79 -2
1 0 -74 -130 -113 -111 -72 -4
-2 -2 -60 -109 -98 -97 -64 -6
-4 -4 -46 -90 -82 -82 -56 -7
-6 -5 -31 -70 -67 -69 -48 -9
-8 -7 -20 -54 -55 -58 -41 -11
-10 -8 -17 -50 -51 -55 -40 -12
-12 -10 -14 -46 -48 -53 -39 -14
-14 -11 -11 -40 -45 -50 -38 -15
-16 -12 -8 -36 -41 -47 -37 -16
-18 -14 -5 -32 -38 -45 -36 -18
-18 -15 -4 -30 -38 -44 -36 -18
-18 -16 -3 -28 -37 -41 -36 -18
-18 -17 -2 -27 -37 -40 -36 -19
-18 -18 1 -25 -36 -39 -36 -19
-18 -19 2 -23 -35 -37 -37 -20
-18 -19 2 -23 -35 -37 -37 -20
-18 -19 2 -23 -34 -37 -37 -20
-18 -20 2 -22 -34 -36 -37 -20
-18 -20 2 -22 -33 -36 -37 -20
-17 -21 3 -21 -32 -35 -36 -20
-17 -21 3 -21 -32 -35 -36 -20
-17 -20 3 -20 -32 -35 -35 -20
-17 -20 3 -20 -31 -34 -35 -20
-17 -19 3 -19 -31 -34 -34 -20
-18 -18 2 -18 -30 -33 -33 -20
-17 -18 2 -18 -30 -32 -33 -20
-17 -18 3 -18 -30 -31 -33 -20
-16 -19 3 -18 -30 -30 -33 -20
-15 -19 4 -18 -30 -29 -33 -20
-14 -20 5 -17 -30 -28 -32 -21
-14 -19 5 -17 -30 -28 -31 -21
-14 -17 5 -17 -30 -28 -31 -20
-14 -16 5 -17 -30 -28 -30 -20
-14 -15 5 -17 -30 -28 -29 -19
-14 -13 5 -17 -30 -27 -28 -18
-14 -13 5 -17 -30 -27 -28 -18
-14 -14 5 -16 -30 -27 -29 -19
-14 -14 5 -16 -30 -27 -29 -19
-14 -15 5 -15 -30 -27 -30 -20
-14 -16 4 -14 -31 -26 -31 -21
-14 -16 4 -14 -30 -26 -31 -21
-14 -16 5 -14 -29 -25 -31 -21
-13 -16 5 -14 -28 -25 -30 -21
-13 -16 6 -14 -27 -24 -30 -21
-12 -15 7 -13 -26 -23 -29 -20
-12 -15 7 -13 -26 -23 -29 -20
-12 -16 7 -12 -26 -23 -28 -20
-11 -16 7 -12 -26 -22 -28 -20
-11 -17 7 -11 -26 -22 -27 -20
-10 -18 6 -10 -26 -21 -26 -21
-10 -17 6 -9 -25 -21 -25 -21
-10 -16 6 -8 -24 -20 -24 -21
-10 -15 6 -7 -23 -19 -23 -21
-10 -14 6 -5 -21 -18 -22 -21
-10 -13 5 -4 -20 -17 -21 -20
-10 -13 5 -4 -19 -16 -21 -20
-9 -13 5 -3 -18 -14 -20 -20
-9 -13 5 -2 -17 -12 -20 -20
-8 -13 5 0 -16 -11 -19 -20
-7 -14 4 1 -15 -9 -18 -20
-6 -13 4 2 -13 -7 -16 -19
-5 -11 4 4 -11 -4 -14 -17
-4 -10 4 6 -10 -2 -12 -16
-3 -9 4 7 -8 2 -10 -15
-2 -7 4 9 -6 4 -8 -13
-2 -7 4 10 -5 6 -7 -13
0 -7 4 12 -4 8 -6 -13
0 -7 3 13 -3 10 -5 -13
1 -7 3 14 0 12 -3 -13
2 -7 2 16 1 14 -2 -13
3 -6 2 18 3 16 0 -13
4 -5 2 19 4 18 2 -12
5 -4 2 21 6 21 4 -12
6 -2 2 23 8 23 5 -11
7 0 1 25 10 25 7 -10
9 0 1 27 13 28 10 -9
11 0 1 29 16 31 13 -7
13 1 0 32 18 34 15 -5
15 1 0 34 21 37 18 -4
17 2 -2 36 24 40 21 -2
20 3 -2 39 27 44 24 0
22 5 -3 42 30 47 26 1
25 7 -4 45 32 50 29 2
27 8 -5 47 35 53 31 4
30 10 -6 50 38 56 34 5
32 11 -7 52 43 60 38 7
34 12 -8 55 46 63 43 10
37 13 -9 57 49 66 47 12
39 14 -10 60 53 70 50 15
42 15 -11 62 56 73 54 17
44 17 -12 63 59 76 57 19
45 18 -13 65 61 79 61 21
47 20 -14 67 64 82 64 23
49 22 -15 68 66 86 67 25
51 24 -16 70 69 89 70 27
51 25 -16 70 70 91 72 28
52 26 -17 70 72 92 74 30
52 27 -17 71 73 94 76 32
53 29 -18 71 74 96 78 33
54 30 -19 72 76 98 80 35
55 32 -19 72 76 98 81 36
56 33 -20 72 76 98 82 38
57 35 -21 72 77 99 84 40
59 37 -22 72 77 99 85 42
60 39 -23 71 78 100 86 44
60 39 -23 70 77 100 86 44
60 40 -23 68 75 100 86 45
60 42 -23 66 74 100 87 46
60 43 -23 65 73 100 87 47
60 44 -24 63 71 99 88 48
59 46 -24 61 69 96 87 48
57 48 -24 60 66 93 86 48
56 50 -23 58 64 91 85 48
55 52 -23 56 61 88 82 48
53 54 -22 54 59 85 81 47
50 50 -21 53 57 82 78 47
47 47 -19 51 54 79 75 47
45 43 -17 50 52 77 72 46
42 38 -16 49 49 74 69 46
38 35 -14 47 46 71 66 45
37 35 -14 43 40 66 61 42
36 35 -13 38 34 60 56 38
35 36 -12 34 29 55 51 36
33 36 -11 31 23 49 46 33
32 37 -10 27 18 44 42 30
28 36 -10 25 15 39 37 27
25 35 -10 22 11 35 33 25
21 34 -9 20 8 31 29 22
17 33 -9 17 4 27 26 20
14 32 -8 15 1 23 22 17
14 29 -7 14 -2 21 20 16
13 26 -6 13 -3 19 18 15
12 24 -5 12 -5 17 16 14
11 21 -4 11 -7 14 14 13
10 18 -3 10 -9 12 12 12
8 17 -2 9 -11 10 10 11
6 15 0 8 -12 8 8 9
4 14 1 7 -14 6 6 8
2 13 2 6 -16 4 4 7
0 11 3 5 -18 2 2 5
0 10 3 4 -19 0 0 4
-2 9 3 3 -21 -2 -3 2
-2 8 4 2 -22 -4 -5 1
-3 7 4 1 -23 -6 -7 0
-4 5 5 -2 -25 -8 -9 -3
-4 5 5 -2 -25 -8 -9 -3
-4 5 5 -2 -26 -8 -9 -3
-5 4 5 -3 -26 -9 -9 -3
-5 4 5 -3 -27 -9 -9 -3
-6 3 5 -4 -28 -10 -9 -2
-6 3 5 -4 -28 -10 -9 -2
-6 3 5 -5 -29 -11 -10 -3
-6 3 5 -6 -29 -12 -11 -4
-6 3 5 -7 -30 -13 -12 -5
-7 2 6 -8 -31 -14 -13 -6
-7 1 6 -8 -31 -14 -13 -6
-8 0 6 -8 -31 -14 -14 -7
-8 -2 6 -8 -32 -14 -14 -8
-9 -3 6 -8 -32 -14 -15 -9
-10 -4 5 -7 -33 -15 -16 -10
-10 -4 5 -7 -33 -15 -16 -10
-10 -4 5 -7 -33 -15 -16 -10
-10 -4 5 -7 -33 -15 -16 -10
-10 -4 5 -7 -33 -15 -16 -10
-9 -4 4 -7 -34 -15 -17 -9
-9 -4 4 -7 -34 -15 -17 -9
-9 -3 4 -7 -34 -15 -17 -9
-9 -3 5 -7 -35 -16 -17 -10
-9 -2 5 -7 -35 -16 -17 -10
-10 0 6 -8 -36 -17 -18 -11
-10 0 6 -8 -36 -17 -18 -11
-10 0 6 -8 -36 -17 -18 -11
-10 0 7 -8 -35 -17 -17 -11
-10 0 7 -8 -35 -17 -17 -11
-9 1 8 -7 -34 -16 -16 -10
-9 1 8 -7 -34 -16 -16 -10
-10 0 8 -6 -34 -16 -16 -9
-10 -2 8 -6 -34 -16 -17 -9
-11 -3 8 -5 -34 -16 -17 -8
-12 -4 8 -4 -33 -17 -18 -7
-12 -4 8 -4 -33 -17 -18 -8
-12 -3 8 -4 -33 -17 -18 -9
-12 -2 8 -4 -33 -17 -18 -10
-12 0 8 -4 -33 -17 -18 -11
-11 1 9 -4 -32 -17 -18 -12
-11 1 9 -4 -32 -17 -18 -12
-11 1 9 -3 -31 -16 -18 -12
-11 0 9 -2 -30 -16 -18 -11
-11 0 9 0 -29 -15 -18 -11
-10 -2 9 1 -28 -14 -17 -10
-10 -2 9 1 -28 -14 -17 -10
-10 -3 9 1 -28 -14 -17 -10
-10 -3 9 1 -28 -14 -17 -10
-10 -4 9 1 -28 -14 -17 -10
-10 -5 10 1 -29 -15 -18 -11
-10 -5 10 1 -29 -15 -18 -11
-10 -4 10 1 -28 -15 -18 -11
-11 -4 10 2 -28 -15 -18 -12
-11 -3 10 2 -27 -15 -18 -12
-12 -2 9 3 -26 -14 -18 -13
-12 -2 9 3 -25 -13 -18 -13
-11 -2 9 4 -24 -12 -17 -12
-11 -2 9 4 -23 -11 -17 -12
-10 -2 9 5 -22 -10 -16 -11
-9 -2 10 6 -21 -9 -15 -10
-9 -2 10 6 -21 -9 -15 -10
-9 -2 10 6 -21 -9 -15 -10
-8 -2 10 6 -21 -9 -15 -10
-8 -2 10 6 -21 -9 -15 -10
-7 -2 11 6 -22 -10 -16 -11
-7 -2 11 6 -22 -10 -16 -11
-8 -2 11 6 -22 -9 -15 -11
-9 -2 11 6 -22 -9 -14 -11
-10 -2 11 6 -22 -8 -13 -11
-11 0 11 7 -21 -7 -12 -10
-11 0 11 7 -21 -7 -12 -10
-11 0 11 7 -21 -7 -12 -10
-10 0 10 7 -20 -7 -12 -11
-10 0 10 7 -20 -7 -12 -11
-9 -2 9 6 -19 -6 -13 -12
-9 0 9 6 -19 -6 -13 -12
-9 1 9 6 -19 -6 -13 -12
-9 2 9 5 -20 -6 -13 -12
-9 3 9 5 -20 -6 -13 -12
-9 4 10 4 -21 -7 -14 -11
-9 4 10 4 -21 -7 -14 -11
-9 3 10 4 -21 -7 -14 -11
-9 2 10 4 -22 -8 -14 -11
-9 1 10 4 -22 -8 -14 -11
-10 0 9 3 -23 -9 -14 -10
-10 0 9 3 -23 -9 -14 -10
-9 0 9 3 -23 -9 -14 -10
-9 0 9 2 -23 -10 -14 -10
-8 0 9 2 -23 -10 -14 -10
-7 0 8 1 -23 -11 -15 -10
-7 0 8 1 -23 -11 -15 -10
-7 -2 8 0 -23 -12 -15 -10
-7 -2 7 0 -24 -13 -16 -10
-7 -3 7 -2 -24 -14 -16 -10
-8 -4 6 -3 -25 -15 -17 -11
-8 -4 6 -3 -25 -15 -17 -11
-8 -4 6 -3 -25 -15 -17 -11
-8 -4 6 -3 -25 -15 -17 -11
-8 -4 6 -3 -25 -15 -17 -11
-8 -3 7 -4 -26 -16 -18 -11
-8 -3 7 -4 -26 -16 -18 -11
-8 -2 7 -5 -26 -17 -18 -11
-9 -2 7 -5 -26 -17 -18 -11
-9 0 7 -6 -26 -18 -18 -11
-10 1 6 -7 -25 -19 -19 -12
-10 1 6 -7 -25 -19 -19 -12
-10 0 6 -7 -25 -19 -19 -12
-10 -2 6 -7 -25 -18 -19 -12
-10 -3 6 -7 -25 -18 -19 -12
-9 -4 5 -6 -25 -17 -20 -12
-9 -4 5 -6 -25 -17 -20 -12
-9 -4 5 -6 -25 -17 -20 -12
-9 -5 5 -6 -25 -17 -20 -12
-9 -5 5 -6 -25 -17 -20 -12
-9 -6 5 -5 -24 -17 -20 -11
-9 -6 5 -5 -24 -17 -20 -11
-9 -5 5 -5 -24 -17 -20 -11
-9 -5 5 -6 -24 -17 -20 -10
-9 -4 5 -6 -24 -17 -20 -10
-10 -3 5 -7 -24 -18 -20 -9
-10 -3 5 -7 -24 -18 -20 -9
-10 -3 5 -7 -24 -18 -20 -9
-10 -3 5 -7 -24 -18 -20 -10
-10 -3 5 -7 -24 -18 -20 -10
-10 -3 5 -6 -24 -19 -20 -11
-10 -4 5 -6 -24 -19 -20 -11
-10 -5 5 -6 -24 -19 -20 -11
-10 -6 6 -6 -23 -19 -20 -11
-10 -7 6 -6 -23 -19 -20 -11
-9 -9 7 -7 -22 -18 -19 -12
-9 -9 7 -7 -22 -18 -19 -12
-9 -8 6 -7 -22 -18 -20 -12
-9 -7 6 -8 -23 -19 -20 -12
-9 -6 5 -8 -23 -19 -21 -12
-8 -5 4 -9 -24 -20 -22 -13
-8 -5 4 -9 -24 -20 -22 -13
-8 -5 4 -8 -24 -20 -22 -13
-8 -5 5 -8 -23 -20 -22 -12
-8 -5 5 -7 -23 -20 -22 -12
-8 -6 6 -6 -22 -19 -21 -11
-8 -6 6 -6 -22 -19 -21 -11
-9 -6 6 -7 -22 -20 -21 -11
-10 -6 6 -7 -22 -20 -22 -12
-11 -6 6 -8 -22 -21 -22 -12
-12 -7 5 -9 -23 -22 -23 -13
-11 -7 5 -9 -23 -22 -23 -13
-10 -7 5 -8 -22 -21 -23 -13
-9 -6 6 -8 -22 -21 -22 -12
-8 -6 6 -7 -21 -20 -22 -12
-7 -5 7 -6 -20 -19 -21 -11
-7 -5 7 -6 -20 -19 -21 -11
-7 -5 7 -6 -20 -19 -21 -11
-7 -4 7 -6 -19 -19 -21 -11
-7 -4 7 -6 -19 -19 -21 -11
-6 -3 7 -5 -18 -19 -21 -11
-5 0 8 -4 -17 -18 -20 -10
-3 2 9 -3 -16 -16 -19 -9
0 5 10 0 -14 -15 -18 -8
2 7 11 1 -13 -13 -17 -7
4 10 12 3 -11 -11 -15 -6
4 10 12 3 -11 -11 -15 -6
3 9 12 3 -11 -11 -15 -6
3 9 12 3 -10 -11 -14 -6
2 8 12 3 -10 -11 -14 -6
1 7 13 4 -9 -10 -13 -5
1 8 13 5 -7 -9 -12 -4
2 9 12 7 -5 -7 -11 -3
3 10 11 8 -3 -5 -9 -2
4 11 10 10 0 -3 -8 0
5 12 9 12 2 0 -6 1
5 11 7 10 1 -2 -6 1
5 9 5 8 -2 -3 -7 1
5 8 2 5 -3 -5 -8 1
5 6 0 3 -5 -6 -9 1
6 4 -4 0 -7 -8 -10 1
7 5 -4 0 -7 -8 -10 1
8 6 -4 0 -7 -8 -10 1
9 8 -5 0 -6 -9 -10 0
10 9 -5 0 -6 -9 -10 0
11 11 -6 1 -5 -10 -11 -2
11 10 -6 1 -5 -10 -11 -2
11 9 -6 0 -6 -11 -12 -3
11 7 -6 -2 -7 -11 -12 -3
11 6 -6 -3 -8 -12 -13 -4
12 4 -5 -4 -9 -13 -14 -5
10 3 -5 -4 -9 -13 -14 -5
8 2 -4 -4 -9 -13 -14 -5
6 1 -4 -4 -9 -13 -14 -4
4 0 -3 -4 -9 -13 -14 -4
1 -2 -2 -5 -9 -13 -13 -3
-2 -3 0 -6 -10 -15 -15 -4
-4 -4 1 -7 -11 -17 -17 -6
-6 -5 3 -8 -13 -19 -19 -8
-8 -6 4 -9 -14 -21 -21 -10
-11 -8 6 -11 -16 -24 -24 -12
-11 -8 6 -11 -16 -24 -24 -12
-11 -8 6 -11 -16 -24 -24 -12
-10 -8 5 -11 -16 -24 -24 -12
-10 -8 5 -11 -16 -24 -24 -12
-10 -8 5 -11 -16 -24 -24 -12
-9 -9 4 -11 -17 -24 -24 -13
-10 -9 4 -11 -17 -24 -24 -13
-10 -9 4 -11 -17 -24 -24 -13
-11 -9 4 -11 -17 -24 -24 -13
-11 -9 4 -11 -17 -24 -24 -13
-12 -9 5 -11 -17 -25 -25 -14
-12 -9 5 -11 -17 -25 -25 -14
-12 -9 6 -11 -16 -25 -25 -14
-12 -9 6 -11 -16 -25 -25 -14
-12 -9 6 -11 -16 -25 -25 -14
-13 -10 7 -11 -14 -23 -25 -15
-13 -11 7 -10 -13 -22 -25 -15
-13 -11 6 -9 -11 -20 -25 -15
-13 -12 6 -8 -10 -19 -25 -15
-13 -12 6 -8 -9 -18 -25 -15
-13 -6 10 9 5 -8 -20 -14
-13 2 15 24 17 3 -16 -13
-13 10 21 40 30 13 -12 -13
-13 17 26 57 43 23 -8 -12
-13 24 31 72 55 32 -4 -12
6 43 26 67 64 49 20 6
24 60 19 60 73 66 44 22
43 77 12 53 82 82 67 38
62 96 5 46 92 99 91 56
80 113 -2 39 101 115 114 72
92 148 -40 4 111 141 163 114
103 184 -80 -32 120 167 213 157
114 219 -119 -68 130 192 262 200
125 254 -159 -104 140 218 311 243
136 289 -199 -141 149 243 360 285
122 256 -204 -168 95 178 297 255
107 220 -210 -194 37 109 228 221
91 183 -214 -221 -20 40 160 186
75 147 -219 -247 -77 -28 93 152
60 111 -223 -274 -135 -98 24 117
50 93 -201 -257 -143 -113 2 97
40 75 -177 -236 -151 -127 -20 75
31 59 -153 -217 -158 -140 -41 55
21 42 -130 -197 -165 -154 -63 34
12 24 -105 -177 -173 -168 -85 13
7 16 -90 -154 -151 -149 -81 8
3 8 -74 -132 -128 -130 -76 3
-3 0 -58 -109 -103 -109 -71 -3
-7 -8 -43 -87 -79 -89 -66 -8
-11 -16 -27 -64 -55 -68 -62 -13
-13 -17 -21 -57 -49 -63 -57 -14
-14 -17 -16 -49 -43 -58 -53 -15
-15 -17 -11 -41 -36 -53 -48 -16
-16 -17 -6 -34 -31 -48 -44 -17
-17 -17 0 -27 -25 -43 -39 -17
-18 -19 1 -25 -24 -41 -38 -18
-18 -20 2 -24 -23 -40 -38 -18
-18 -22 2 -22 -23 -40 -38 -19
-18 -23 3 -21 -22 -39 -38 -19
-18 -24 3 -20 -22 -39 -38 -19
-19 -25 4 -18 -21 -38 -37 -20
-19 -25 5 -17 -20 -37 -37 -21
-19 -25 6 -15 -20 -36 -37 -22
-19 -25 7 -14 -19 -35 -37 -23
-19 -25 8 -13 -19 -34 -37 -24
-20 -25 9 -12 -18 -33 -37 -25
-20 -27 10 -11 -17 -33 -37 -25
-20 -29 10 -11 -17 -32 -36 -25
-20 -31 11 -10 -16 -32 -36 -25
-20 -33 11 -10 -16 -32 -36 -25
-21 -34 12 -9 -15 -31 -35 -26
-21 -33 11 -9 -15 -31 -35 -27
-20 -32 11 -9 -16 -31 -35 -27
-20 -31 10 -9 -16 -31 -35 -28
-20 -30 10 -9 -16 -31 -35 -28
-19 -29 9 -10 -17 -30 -36 -29
-19 -29 9 -10 -16 -30 -36 -29
-19 -29 9 -10 -16 -29 -36 -29
-19 -29 9 -10 -15 -29 -36 -29
-19 -29 9 -10 -15 -29 -36 -29
-18 -29 10 -9 -14 -28 -35 -28
-18 -28 10 -8 -14 -27 -35 -28
-18 -27 10 -8 -13 -27 -34 -27
-18 -26 10 -7 -13 -26 -34 -27
-18 -26 10 -7 -13 -26 -34 -27
-17 -25 10 -6 -12 -25 -33 -26
-17 -25 10 -6 -12 -25 -33 -27
-18 -26 11 -6 -12 -25 -33 -27
-18 -26 11 -6 -12 -25 -33 -28
-18 -26 11 -6 -12 -25 -33 -28
-19 -27 12 -6 -13 -25 -32 -29
-18 -27 12 -5 -12 -24 -32 -29
-17 -27 12 -4 -11 -23 -31 -29
-16 -27 12 -3 -10 -22 -31 -29
-15 -27 12 -2 -10 -21 -31 -29
-14 -26 12 0 -8 -20 -30 -29
-14 -26 12 1 -7 -19 -29 -29
-14 -26 12 1 -5 -18 -28 -29
-14 -26 12 2 -4 -17 -27 -29
-14 -26 12 2 -3 -17 -27 -29
-13 -27 11 3 -2 -16 -26 -29
-13 -27 11 4 -2 -15 -26 -29
-13 -27 11 5 0 -15 -25 -29
-13 -27 11 6 0 -14 -25 -29
-13 -27 11 6 0 -14 -25 -29
-13 -28 11 8 3 -11 -23 -28
-11 -27 11 10 5 -9 -21 -28
-10 -27 10 12 7 -6 -19 -28
-8 -26 10 14 10 -3 -17 -28
-7 -26 10 15 12 0 -16 -28
-6 -25 9 16 14 2 -14 -27
-6 -24 9 17 16 4 -13 -26
-6 -24 9 18 17 6 -12 -26
-6 -23 9 19 19 8 -11 -25
-6 -23 9 19 20 9 -10 -25
-4 -22 10 22 23 12 -7 -24
-3 -22 10 25 25 15 -5 -23
0 -22 10 28 27 18 -3 -22
1 -22 10 30 29 20 0 -21
2 -22 10 33 31 23 2 -21
4 -22 10 35 33 25 4 -20
6 -20 9 37 35 27 6 -19
7 -19 8 39 37 29 7 -18
9 -17 7 42 39 31 9 -17
10 -16 7 43 42 33 10 -17
12 -15 6 45 45 36 13 -15
13 -14 5 48 48 40 16 -14
15 -13 5 50 51 44 19 -13
16 -12 4 52 53 47 21 -12
17 -11 4 54 56 50 24 -11
21 -10 3 57 59 53 27 -8
25 -9 2 60 63 57 31 -6
29 -9 1 63 66 60 34 -4
33 -8 0 65 69 63 37 0
37 -8 0 68 72 66 40 2
38 -6 -3 69 75 69 44 4
39 -3 -5 70 77 71 47 6
39 0 -7 70 79 73 50 8
40 2 -9 71 82 76 52 10
40 4 -10 71 85 78 55 11
43 5 -11 73 87 81 58 13
45 5 -10 75 89 84 60 15
47 6 -10 77 91 86 62 17
49 6 -9 78 93 89 65 19
51 6 -9 80 95 91 67 21
53 8 -9 81 96 92 68 22
54 10 -11 80 96 92 69 23
56 11 -12 80 97 93 70 24
57 13 -14 79 97 93 71 25
58 14 -15 79 97 93 72 25
59 16 -16 78 98 94 73 26
59 17 -16 78 98 94 74 27
59 19 -17 77 98 95 75 28
59 20 -17 77 98 95 76 29
59 21 -17 77 98 95 77 30
59 24 -18 75 97 95 78 31
58 26 -18 73 94 92 77 32
58 29 -19 71 92 90 76 32
57 32 -19 69 90 88 75 33
57 34 -19 67 88 86 74 33
55 34 -19 65 86 84 72 34
54 32 -18 64 85 82 71 34
52 30 -17 63 82 80 70 34
51 28 -16 62 81 79 69 34
50 26 -15 61 80 78 68 34
47 25 -13 58 75 73 64 32
44 24 -12 55 71 69 60 31
39 24 -10 51 66 64 55 29
36 23 -9 48 62 59 51 27
33 23 -8 45 57 54 47 26
31 22 -6 43 54 51 44 23
30 21 -5 40 51 48 40 21
28 21 -3 38 48 44 36 18
26 20 0 36 45 40 33 15
25 20 1 34 42 37 30 13
22 18 2 32 38 33 26 11
19 16 2 30 35 30 22 9
15 14 3 28 32 26 19 7
12 12 3 26 29 23 15 5
9 10 3 24 26 19 11 3
7 7 5 23 24 18 10 2
4 4 7 22 23 17 9 1
2 1 9 22 22 16 8 0
0 -3 11 21 21 15 7 -2
-3 -6 13 21 20 14 6 -2
-4 -7 14 19 18 12 3 -4
-5 -8 14 18 16 9 1 -6
-6 -9 14 16 14 7 -3 -8
-7 -10 14 14 12 5 -6 -9
-8 -10 14 13 10 3 -8 -11
-9 -12 13 12 9 2 -9 -12
-9 -14 13 12 8 1 -10 -12
-10 -16 13 12 8 1 -10 -12
-10 -18 13 12 7 0 -11 -12
-10 -20 13 12 7 0 -11 -12
-11 -21 14 11 6 -2 -12 -13
-12 -21 14 11 6 -3 -12 -14
-13 -21 15 10 5 -3 -13 -15
-14 -21 15 10 5 -4 -13 -16
-14 -21 15 10 5 -4 -13 -17
-15 -22 16 9 4 -5 -14 -18
-15 -22 16 8 4 -5 -14 -18
-15 -22 16 8 3 -5 -14 -18
-15 -22 16 7 3 -5 -14 -18
-15 -22 16 7 3 -5 -14 -18
-14 -22 17 6 2 -6 -15 -20
-14 -21 17 6 1 -7 -16 -21
-14 -21 16 5 0 -7 -17 -22
-14 -20 16 5 -2 -8 -18 -23
-14 -20 16 5 -2 -8 -19 -24
-14 -19 15 4 -3 -9 -20 -25
-14 -20 15 4 -3 -9 -20 -25
-14 -20 15 4 -3 -9 -20 -25
-14 -21 15 4 -3 -9 -20 -25
-14 -21 15 4 -3 -9 -20 -25
-14 -22 16 5 -3 -8 -20 -25
-14 -23 16 5 -3 -8 -20 -25
-14 -23 17 5 -3 -7 -20 -25
-14 -24 17 5 -3 -7 -20 -25
-14 -24 17 5 -3 -7 -20 -25
-15 -25 18 6 -2 -6 -19 -24
-15 -24 18 6 -2 -7 -19 -25
-15 -24 17 6 -3 -8 -20 -25
-15 -23 17 6 -3 -9 -20 -26
-15 -23 17 6 -3 -9 -20 -26
-16 -22 16 6 -4 -10 -21 -27
-16 -22 16 6 -4 -10 -21 -27
-16 -22 16 7 -3 -10 -20 -27
-16 -22 16 7 -3 -10 -20 -27
-16 -22 16 7 -3 -10 -20 -27
-16 -23 16 8 -2 -9 -19 -26
-16 -24 17 10 0 -8 -18 -26
-15 -25 18 11 0 -7 -17 -25
-15 -26 19 12 1 -6 -16 -25
-15 -27 20 13 1 -6 -16 -25
-14 -27 21 14 2 -5 -15 -24
-14 -26 21 14 2 -5 -15 -24
-14 -25 20 13 2 -5 -16 -25
-14 -23 20 13 2 -5 -16 -25
-14 -22 20 13 2 -5 -16 -25
-15 -21 19 12 1 -6 -17 -26
-15 -21 18 12 1 -6 -17 -26
-15 -21 18 13 1 -5 -16 -26
-15 -21 17 13 1 -5 -16 -26
-15 -21 17 13 1 -5 -16 -26
-15 -20 16 14 2 -4 -15 -25
-14 -20 17 14 2 -4 -15 -25
-14 -20 17 14 2 -4 -15 -24
-13 -20 18 14 2 -4 -15 -24
-13 -20 18 14 2 -4 -15 -24
-12 -21 19 14 3 -3 -14 -23
-13 -21 19 14 3 -3 -14 -23
-14 -21 20 14 3 -3 -14 -23
-15 -21 20 14 3 -3 -14 -23
-15 -21 20 14 3 -3 -14 -23
-16 -22 21 15 4 -2 -13 -24
-15 -22 20 15 4 -2 -13 -24
-15 -21 20 15 4 -2 -14 -24
-14 -21 19 15 4 -2 -14 -24
-14 -21 19 15 4 -2 -14 -24
-13 -20 18 14 3 -3 -15 -25
-13 -19 18 14 3 -2 -14 -24
-13 -18 19 14 4 -2 -14 -24
-13 -17 19 14 4 0 -13 -23
-13 -17 19 14 4 0 -13 -23
-13 -16 20 15 5 1 -12 -22
-13 -16 20 14 4 1 -12 -22
-13 -16 20 14 4 0 -12 -22
-13 -16 20 13 3 0 -12 -22
-13 -16 20 13 3 0 -12 -22
-12 -17 19 12 2 -2 -13 -22
-12 -17 18 12 1 -3 -14 -22
-12 -17 17 12 0 -3 -14 -22
-12 -17 16 12 -2 -4 -15 -22
-12 -17 16 12 -3 -4 -15 -22
-11 -16 15 11 -4 -5 -16 -23
-11 -16 15 10 -4 -5 -16 -23
-10 -16 15 10 -5 -6 -16 -23
-10 -16 15 9 -5 -6 -16 -23
-10 -16 15 9 -5 -6 -16 -23
-9 -15 15 8 -6 -7 -16 -22
-10 -15 15 8 -6 -7 -16 -22
-10 -16 15 8 -6 -7 -16 -22
-11 -16 15 8 -6 -7 -16 -22
-11 -16 15 8 -6 -7 -16 -22
-12 -17 16 7 -6 -8 -15 -21
-12 -16 15 6 -7 -9 -15 -21
-11 -15 15 6 -7 -9 -16 -21
-11 -14 14 5 -8 -10 -16 -21
-11 -14 14 5 -8 -10 -16 -21
-10 -13 13 4 -9 -11 -17 -21
-10 -13 13 3 -9 -11 -17 -21
-10 -13 12 2 -10 -11 -17 -20
-10 -13 12 1 -10 -11 -17 -20
-10 -13 12 1 -10 -11 -17 -20
-9 -13 11 0 -11 -12 -18 -19
-10 -13 11 0 -11 -12 -18 -19
-11 -13 11 -2 -12 -12 -18 -19
-12 -13 11 -2 -12 -12 -18 -19
-12 -13 11 -2 -12 -12 -18 -19
-13 -12 11 -3 -13 -13 -18 -20
-11 -11 11 -3 -13 -13 -18 -20
-10 -10 11 -3 -13 -13 -18 -20
-9 -9 11 -3 -13 -13 -18 -20
-8 -8 11 -3 -13 -13 -18 -20
-7 -7 11 -4 -14 -14 -17 -19
-7 -7 11 -4 -14 -14 -17 -18
-7 -8 11 -4 -14 -14 -17 -18
-7 -8 11 -4 -14 -14 -17 -17
-7 -8 11 -4 -14 -14 -17 -17
-7 -9 11 -3 -13 -13 -17 -16
-7 -9 11 -3 -13 -14 -17 -17
-7 -9 11 -4 -14 -15 -17 -17
-7 -9 11 -4 -14 -16 -17 -18
-7 -9 11 -4 -14 -16 -17 -18
-8 -8 10 -5 -15 -17 -18 -19
-8 -6 10 -5 -16 -17 -18 -19
-7 -4 9 -5 -16 -17 -19 -19
-7 -2 9 -5 -17 -17 -19 -19
-7 1 9 -5 -17 -17 -19 -19
-6 2 8 -6 -18 -17 -20 -20
-7 1 8 -6 -18 -17 -20 -20
-8 0 8 -6 -18 -17 -20 -19
-8 0 8 -6 -18 -17 -20 -19
-9 -2 8 -6 -18 -17 -20 -19
-10 -3 9 -7 -18 -18 -20 -18
-10 -3 9 -7 -18 -18 -20 -18
-10 -2 9 -7 -18 -18 -20 -17
-10 -2 9 -7 -18 -18 -20 -17
-10 -2 9 -7 -18 -18 -20 -17
-10 0 8 -7 -17 -18 -20 -16
-10 -2 8 -7 -17 -18 -20 -16
-10 -3 8 -7 -17 -18 -20 -16
-10 -3 8 -7 -17 -18 -20 -16
-10 -4 8 -7 -17 -18 -20 -16
-9 -5 7 -8 -18 -18 -20 -16
-9 -4 7 -8 -18 -18 -20 -16
-9 -4 7 -9 -19 -19 -21 -17
-9 -3 7 -9 -19 -19 -21 -17
-9 -3 7 -9 -19 -19 -21 -17
-8 -2 6 -10 -20 -20 -22 -18
-8 -2 6 -10 -19 -20 -21 -17
-9 -2 6 -9 -19 -19 -20 -16
-9 -2 6 -9 -18 -19 -20 -15
-9 -2 6 -9 -18 -19 -19 -14
-10 -2 7 -8 -17 -18 -18 -13
-10 0 7 -9 -17 -18 -19 -13
-10 0 7 -9 -18 -19 -19 -13
-10 1 7 -10 -18 -19 -20 -13
-10 1 7 -10 -18 -19 -20 -13
-9 2 7 -11 -19 -20 -21 -14
-10 0 8 -10 -19 -20 -20 -14
-10 -2 8 -10 -18 -19 -20 -13
-11 -3 9 -9 -18 -19 -19 -13
-11 -4 9 -9 -18 -19 -19 -13
-12 -5 10 -8 -17 -18 -18 -12
-12 -5 10 -8 -17 -18 -18 -11
-12 -5 10 -8 -17 -18 -18 -11
-12 -5 10 -8 -17 -18 -18 -10
-12 -5 10 -8 -17 -18 -18 -10
-12 -6 9 -8 -18 -18 -19 -9
-11 -5 9 -8 -18 -18 -19 -9
-10 -4 9 -7 -17 -18 -19 -9
-9 -3 9 -7 -17 -18 -19 -9
-8 -2 9 -7 -17 -18 -19 -9
-7 1 10 -5 -15 -16 -18 -10
-7 3 12 -4 -13 -14 -16 -8
-6 5 13 -2 -12 -13 -15 -7
-6 7 15 0 -10 -11 -13 -5
-6 9 16 2 -8 -9 -12 -4
-5 9 17 3 -7 -8 -11 -3
-5 7 18 5 -6 -7 -10 -2
-5 6 19 6 -5 -7 -10 -2
-5 4 19 7 -5 -6 -9 0
-5 2 20 8 -4 -6 -9 0
-5 2 21 9 -3 -5 -8 1
-3 4 19 9 0 -3 -8 1
0 6 18 10 1 -2 -7 2
2 9 17 10 2 1 -7 2
4 11 16 10 3 2 -7 2
5 12 14 10 3 3 -6 3
5 12 11 8 2 1 -7 3
5 12 8 6 0 0 -7 3
5 12 5 4 -2 -3 -8 3
5 12 2 2 -4 -4 -8 3
6 12 1 1 -5 -5 -9 2
6 10 2 2 -4 -4 -8 3
6 9 3 2 -3 -4 -8 4
6 7 3 3 -3 -3 -7 4
6 6 4 3 -2 -3 -7 5
7 5 5 4 0 -2 -6 5
6 4 5 2 -3 -4 -8 3
5 3 5 1 -4 -5 -9 2
4 3 5 -2 -6 -7 -11 0
3 2 5 -3 -7 -8 -12 -3
2 0 6 -4 -8 -9 -13 -4
0 -2 8 -4 -8 -9 -13 -4
-2 -4 9 -4 -8 -10 -14 -4
-4 -5 10 -4 -8 -10 -14 -4
-5 -7 11 -4 -8 -10 -14 -4
-7 -8 12 -4 -9 -11 -16 -6
-10 -9 12 -5 -11 -13 -18 -7
-12 -9 12 -5 -12 -14 -19 -9
-14 -10 12 -6 -14 -16 -21 -10
-17 -10 12 -6 -15 -17 -23 -12
-18 -11 12 -7 -16 -18 -24 -13
-19 -11 12 -7 -16 -18 -24 -12
-20 -12 12 -7 -15 -17 -24 -11
-20 -12 12 -7 -15 -17 -24 -11
-21 -12 12 -7 -15 -17 -24 -10
-22 -13 13 -7 -14 -16 -23 -9
-21 -13 13 -7 -14 -16 -23 -9
-21 -13 13 -7 -14 -16 -23 -9
-20 -13 13 -7 -14 -16 -23 -9
-20 -13 13 -7 -14 -16 -23 -9
-19 -14 14 -7 -13 -16 -22 -10
-20 -15 14 -7 -13 -16 -22 -11
-20 -15 14 -7 -13 -17 -22 -11
-21 -16 14 -7 -13 -17 -22 -12
-21 -16 14 -7 -13 -17 -22 -12
-22 -17 14 -8 -13 -17 -23 -13
-22 -16 14 -7 -12 -16 -23 -13
-22 -15 15 -5 -10 -14 -22 -13
-22 -14 15 -4 -8 -13 -22 -13
-22 -13 15 -3 -6 -11 -22 -13
-21 -8 20 10 4 -4 -19 -14
-20 -2 28 26 17 8 -15 -14
-19 6 35 44 30 18 -10 -13
-19 12 44 61 44 29 -6 -13
-18 18 51 78 57 39 -2 -13
-4 33 43 78 66 53 17 2
17 54 25 67 72 67 42 22
38 74 8 57 78 81 66 43
59 94 -10 46 85 96 92 63
79 114 -28 35 91 111 116 84
95 142 -53 9 98 132 156 117
105 174 -81 -26 105 157 203 158
116 205 -110 -61 112 182 252 199
128 237 -139 -96 119 206 299 240
139 269 -169 -131 127 231 346 281
130 257 -179 -159 93 194 315 271
110 220 -178 -186 35 121 240 231
90 184 -177 -212 -22 50 167 191
69 147 -177 -238 -79 -23 92 151
49 110 -176 -264 -137 -96 17 111
35 88 -163 -260 -153 -121 -18 87
26 71 -146 -236 -147 -121 -31 70
17 56 -128 -213 -140 -121 -45 54
8 39 -110 -189 -133 -121 -59 36
-2 24 -93 -165 -127 -121 -72 20
-7 15 -77 -143 -114 -113 -75 12
-10 8 -63 -122 -99 -101 -71 8
-13 2 -49 -102 -83 -88 -67 4
-16 -5 -34 -80 -68 -75 -64 0
-19 -11 -20 -60 -53 -62 -60 -5
-22 -15 -12 -49 -44 -55 -56 -8
-23 -18 -8 -43 -39 -50 -51 -9
-25 -21 -4 -36 -34 -46 -47 -11
-27 -24 1 -30 -29 -41 -43 -12
-29 -27 5 -24 -24 -36 -37 -14
-30 -29 7 -21 -22 -34 -35 -15
-30 -28 7 -21 -22 -34 -36 -16
-30 -26 7 -20 -22 -35 -37 -18
-30 -25 7 -20 -22 -35 -37 -19
-30 -24 7 -20 -22 -35 -38 -20
-31 -23 7 -18 -23 -36 -39 -21
-31 -25 8 -17 -22 -35 -39 -21
-31 -26 9 -15 -21 -33 -39 -22
-31 -28 10 -14 -20 -32 -39 -22
-31 -29 11 -12 -19 -31 -39 -22
-31 -30 12 -11 -18 -30 -38 -23
-31 -30 12 -11 -18 -30 -38 -23
-31 -30 12 -10 -18 -29 -37 -23
-31 -30 12 -10 -18 -29 -36 -23
-31 -30 12 -10 -18 -29 -36 -23
-32 -31 13 -9 -17 -28 -35 -23
-32 -31 13 -9 -17 -28 -35 -23
-32 -31 13 -9 -17 -28 -36 -24
-32 -31 13 -9 -17 -28 -36 -25
-32 -31 13 -9 -17 -28 -36 -25
-32 -31 13 -8 -16 -27 -37 -26
-32 -31 13 -8 -16 -27 -37 -26
-31 -30 13 -8 -15 -26 -36 -25
-30 -29 13 -8 -15 -25 -36 -25
-30 -29 13 -8 -15 -25 -36 -25
-29 -28 14 -7 -14 -24 -35 -24
-29 -30 14 -7 -14 -24 -35 -24
-29 -31 15 -7 -14 -24 -35 -25
-29 -33 15 -7 -14 -24 -35 -26
-29 -34 15 -7 -14 -24 -35 -26
-30 -35 16 -6 -14 -24 -35 -27
-30 -35 15 -6 -14 -24 -35 -27
-30 -34 14 -6 -14 -24 -35 -27
-30 -33 14 -6 -14 -24 -35 -27
-30 -33 13 -6 -14 -24 -35 -27
-30 -32 12 -5 -14 -23 -34 -27
-30 -31 12 -4 -13 -23 -33 -27
-29 -30 12 -3 -12 -22 -32 -27
-28 -30 12 -3 -11 -21 -32 -27
-28 -29 12 -2 -10 -21 -31 -27
-27 -28 12 0 -9 -20 -30 -26
-27 -27 12 0 -9 -20 -30 -26
-26 -25 12 0 -9 -20 -29 -26
-25 -24 12 0 -9 -20 -29 -26
-25 -23 12 0 -9 -20 -29 -26
-24 -22 11 0 -8 -18 -27 -27
-24 -23 11 2 -6 -16 -26 -27
-23 -25 12 3 -4 -14 -24 -26
-23 -26 12 5 -3 -12 -22 -26
-23 -27 12 6 0 -10 -20 -26
-22 -28 13 7 1 -9 -19 -25
-20 -28 12 7 2 -9 -19 -25
-19 -27 11 8 3 -8 -18 -24
-17 -27 11 8 3 -8 -18 -23
-16 -27 10 8 4 -8 -18 -23
-15 -26 9 9 6 -6 -17 -22
-14 -26 9 10 8 -4 -15 -22
-13 -25 8 11 10 -2 -14 -23
-13 -24 8 11 12 1 -12 -23
-12 -24 8 12 14 3 -11 -23
-11 -23 7 14 16 5 -9 -23
-10 -22 7 17 17 7 -8 -21
-9 -20 7 19 19 9 -6 -19
-9 -19 7 22 21 11 -4 -17
-8 -18 7 24 23 13 -2 -14
-6 -17 8 26 25 15 1 -13
-4 -16 7 28 27 17 3 -13
-2 -14 5 29 29 19 5 -12
1 -13 4 31 31 21 7 -11
3 -12 3 32 33 23 9 -11
5 -11 2 34 35 25 11 -10
7 -10 1 36 38 28 14 -9
9 -8 0 39 42 31 17 -8
11 -7 0 42 45 34 20 -7
14 -6 -2 44 47 37 22 -6
16 -5 -3 46 50 40 25 -5
18 -4 -3 48 52 42 27 -3
20 -3 -4 49 54 44 30 0
22 -3 -5 51 56 46 32 1
25 -2 -5 52 58 48 34 3
27 1 -6 53 60 50 37 5
30 3 -7 55 62 53 42 7
33 6 -9 56 65 55 45 9
36 8 -10 57 67 58 48 11
39 10 -11 59 69 60 51 13
42 12 -12 60 71 63 54 15
43 13 -13 60 73 64 56 16
45 14 -15 61 75 66 58 18
46 14 -16 62 76 68 60 20
47 15 -17 62 78 70 62 22
48 17 -18 63 79 71 64 23
49 18 -19 63 79 71 65 24
50 20 -21 63 80 72 67 26
51 22 -22 63 80 73 69 27
52 24 -23 63 80 73 71 28
53 25 -24 63 81 74 72 30
55 26 -24 63 81 74 73 31
56 27 -24 63 82 74 74 33
57 28 -24 63 82 74 74 35
59 29 -24 63 82 74 75 37
60 30 -25 61 84 75 76 38
59 32 -25 59 81 74 76 38
57 34 -25 57 80 72 75 38
56 35 -25 55 79 71 74 38
55 37 -25 53 77 70 74 38
53 38 -26 52 76 68 73 39
50 36 -26 51 74 66 72 39
47 35 -25 50 72 64 70 39
44 34 -25 49 70 62 69 39
40 32 -25 48 68 60 68 39
37 31 -23 47 66 58 65 39
35 30 -21 45 63 55 61 37
33 29 -19 43 60 51 57 35
31 28 -17 40 58 48 53 33
29 27 -15 38 55 45 49 31
26 25 -14 37 52 40 46 30
23 23 -12 35 49 37 43 28
21 21 -10 33 45 33 39 26
18 19 -8 32 42 29 36 24
16 17 -6 30 38 25 33 22
14 15 -5 29 35 22 30 21
12 15 -5 27 33 20 27 19
11 15 -4 25 31 17 24 17
10 15 -4 23 29 14 22 15
8 15 -4 21 27 12 19 13
6 14 -3 20 25 10 17 12
4 12 0 19 23 8 15 10
2 10 2 18 21 6 13 9
0 8 4 18 20 5 11 8
-3 6 6 17 18 3 9 6
-4 5 7 16 17 2 8 5
-6 3 7 16 17 1 6 4
-8 1 8 15 16 0 5 2
-10 0 9 15 16 0 4 1
-12 -3 9 15 16 -2 2 0
-13 -4 10 14 15 -3 1 -2
-13 -5 10 12 13 -5 0 -3
-14 -7 10 11 11 -7 -2 -4
-14 -8 10 10 9 -8 -3 -4
-14 -9 10 8 7 -10 -4 -5
-15 -10 10 7 6 -11 -5 -6
-15 -9 10 7 6 -11 -5 -6
-15 -8 10 6 5 -12 -6 -7
-15 -8 10 5 5 -13 -7 -8
-15 -7 10 5 5 -13 -7 -8
-16 -7 9 4 4 -14 -8 -9
-16 -10 9 4 4 -14 -8 -9
-16 -13 10 4 3 -14 -9 -9
-16 -16 10 4 3 -14 -9 -9
-16 -19 10 4 3 -14 -9 -9
-17 -21 11 5 2 -14 -10 -10
-17 -20 11 5 2 -14 -10 -10
-18 -19 11 4 1 -15 -10 -10
-18 -19 11 3 0 -16 -10 -10
-18 -18 11 3 0 -16 -10 -10
-19 -17 10 2 -2 -17 -11 -11
-19 -17 10 2 -2 -17 -11 -11
-19 -17 10 2 -3 -17 -12 -12
-19 -17 10 2 -3 -17 -13 -12
-19 -17 10 2 -3 -17 -13 -12
-18 -16 10 1 -4 -18 -14 -13
-18 -16 10 1 -4 -18 -14 -13
-19 -16 11 1 -3 -17 -14 -13
-19 -16 11 1 -2 -17 -14 -13
-19 -16 11 1 -2 -17 -14 -13
-20 -17 12 1 0 -16 -14 -14
-20 -17 12 2 0 -16 -13 -13
-20 -18 13 4 1 -16 -12 -12
-20 -19 14 5 2 -16 -12 -12
-20 -19 14 6 2 -16 -11 -11
-21 -20 15 7 3 -15 -10 -10
-21 -19 15 7 3 -15 -10 -10
-21 -18 15 7 3 -15 -10 -10
-21 -17 15 8 3 -15 -10 -11
-21 -16 15 8 3 -15 -10 -11
-22 -15 14 9 2 -15 -11 -12
-21 -15 14 9 2 -15 -11 -12
-20 -15 14 9 2 -15 -11 -12
-19 -15 14 8 2 -15 -11 -12
-18 -15 14 8 2 -15 -11 -12
-17 -14 14 7 2 -15 -11 -13
-18 -14 14 7 2 -15 -11 -13
-19 -14 14 8 2 -15 -11 -13
-20 -13 15 9 3 -15 -11 -14
-21 -13 15 9 3 -15 -11 -14
-22 -12 16 10 4 -14 -11 -15
-22 -14 16 10 5 -13 -10 -14
-22 -15 16 11 5 -13 -9 -14
-22 -17 16 12 6 -12 -8 -13
-22 -19 16 12 7 -11 -7 -12
-22 -20 16 13 8 -10 -6 -11
-22 -19 16 13 8 -10 -6 -10
-22 -18 16 13 8 -10 -6 -10
-22 -16 15 13 8 -10 -6 -9
-22 -15 15 13 8 -10 -6 -8
-21 -15 14 12 8 -10 -7 -7
-23 -17 15 13 9 -8 -6 -5
-24 -19 16 14 9 -7 -5 -4
-25 -21 18 15 10 -6 -4 -2
-27 -23 19 16 11 -4 -3 1
-28 -25 20 17 12 -3 -2 2
-27 -27 21 18 13 -3 1 3
-27 -29 21 19 14 -3 2 3
-26 -31 22 20 16 -2 4 4
-25 -33 23 21 17 -2 6 5
-24 -35 24 22 18 0 7 6
-24 -37 24 22 18 0 7 6
-25 -39 24 22 18 1 7 7
-26 -41 24 22 18 2 6 8
-26 -44 24 22 18 2 6 8
-27 -45 24 21 17 3 5 9
-26 -44 24 21 17 3 5 8
-25 -43 24 21 17 3 5 7
-24 -41 24 21 17 3 4 6
-23 -40 24 21 17 3 4 5
-22 -39 23 20 18 3 3 4
-22 -39 23 19 17 2 2 3
-23 -39 23 19 17 2 2 3
-24 -39 23 18 16 1 1 2
-24 -39 23 17 15 0 0 1
-25 -40 23 16 14 -2 -2 0
-25 -40 23 16 14 -2 -2 0
-25 -40 23 16 14 -2 -2 1
-25 -41 24 16 14 0 0 2
-25 -41 24 16 14 0 0 2
-26 -43 25 17 15 1 1 3
-26 -43 25 17 14 0 0 2
-26 -43 25 16 14 -2 -2 2
-25 -43 25 15 13 -3 -3 1
-25 -43 25 15 12 -4 -4 0
-24 -41 25 14 11 -5 -5 -2
-24 -40 25 14 11 -5 -5 -2
-24 -39 25 14 11 -5 -5 -3
-24 -37 25 14 11 -5 -5 -4
-24 -36 25 14 11 -5 -5 -4
-25 -35 24 13 11 -4 -4 -5
-25 -35 23 13 10 -5 -5 -6
-25 -36 22 12 9 -6 -6 -7
-25 -37 20 11 8 -7 -8 -9
-25 -37 19 11 7 -8 -9 -10
-26 -38 18 10 6 -9 -10 -11
-26 -36 18 10 6 -9 -10 -11
-26 -35 18 10 6 -9 -10 -11
-26 -33 18 9 6 -9 -10 -11
-26 -31 18 9 6 -9 -10 -11
-26 -30 19 8 6 -8 -11 -11
-26 -28 18 8 6 -8 -11 -12
-25 -27 18 7 5 -9 -12 -12
-24 -25 17 6 4 -10 -13 -13
-24 -23 16 6 4 -10 -13 -14
-23 -22 15 5 3 -11 -14 -15
-23 -22 15 5 2 -11 -15 -16
-23 -22 15 4 2 -11 -15 -16
-23 -22 15 3 1 -12 -16 -17
-23 -22 15 3 0 -12 -17 -18
-23 -21 16 2 -2 -13 -18 -19
-23 -20 16 2 -2 -13 -18 -19
-23 -20 16 2 -2 -13 -18 -19
-24 -19 16 2 -3 -14 -18 -20
-24 -18 16 2 -3 -14 -18 -20
-25 -17 15 1 -4 -15 -19 -21
-25 -16 15 1 -4 -15 -19 -21
-25 -15 14 0 -5 -16 -20 -21
-25 -14 13 -2 -6 -17 -21 -21
-25 -13 13 -2 -6 -17 -21 -21
-24 -12 12 -3 -7 -18 -22 -21
-24 -12 12 -3 -7 -18 -22 -21
-24 -11 12 -3 -7 -18 -22 -22
-24 -10 12 -3 -8 -18 -22 -23
-24 -10 12 -3 -8 -18 -22 -23
-24 -9 13 -3 -9 -18 -22 -24
-24 -9 13 -3 -9 -18 -22 -24
-24 -9 13 -3 -9 -18 -22 -24
-24 -8 12 -4 -9 -18 -23 -24
-24 -8 12 -4 -9 -18 -23 -24
-23 -7 11 -5 -10 -19 -24 -25
-23 -8 11 -5 -10 -19 -24 -25
-23 -8 11 -5 -10 -19 -24 -25
-23 -9 11 -5 -10 -19 -24 -25
-23 -10 11 -5 -10 -19 -24 -25
-22 -11 11 -4 -9 -18 -23 -25
-22 -10 11 -5 -10 -19 -23 -25
-22 -9 11 -5 -11 -19 -24 -25
-23 -7 10 -6 -12 -20 -25 -26
-23 -6 10 -7 -13 -21 -25 -26
-24 -5 9 -8 -14 -22 -26 -27
-23 -5 9 -8 -14 -22 -26 -27
-23 -5 9 -8 -14 -22 -26 -27
-22 -5 8 -8 -14 -22 -26 -27
-21 -5 8 -8 -14 -22 -26 -27
-20 -5 7 -8 -14 -23 -27 -27
-20 -5 7 -8 -14 -23 -27 -27
-20 -5 7 -9 -14 -23 -27 -28
-20 -4 7 -10 -14 -23 -27 -29
-20 -4 7 -10 -14 -23 -27 -29
-20 -3 6 -11 -15 -23 -28 -30
-20 -3 6 -11 -15 -23 -28 -30
-20 -3 6 -11 -15 -23 -28 -30
-20 -3 6 -10 -15 -23 -28 -29
-20 -3 6 -10 -15 -23 -28 -29
-19 -3 7 -9 -15 -23 -27 -28
-19 -3 7 -9 -15 -23 -27 -28
-19 -3 7 -9 -15 -23 -27 -28
-19 -3 8 -9 -15 -23 -27 -28
-19 -3 8 -9 -15 -23 -27 -28
-18 -3 9 -10 -16 -23 -28 -28
-17 0 9 -10 -16 -23 -28 -29
-16 3 8 -10 -17 -23 -28 -30
-15 6 7 -10 -18 -24 -29 -32
-14 9 7 -10 -18 -24 -29 -33
-13 11 6 -11 -19 -25 -30 -34
-13 11 7 -10 -18 -23 -28 -32
-13 11 8 -8 -16 -22 -27 -30
-12 11 10 -7 -15 -20 -25 -28
-12 11 11 -5 -13 -18 -23 -27
-11 11 12 -4 -12 -17 -22 -25
-11 12 12 -4 -12 -17 -22 -25
-11 14 12 -4 -12 -17 -22 -25
-10 15 12 -4 -12 -17 -22 -25
-10 17 12 -4 -12 -17 -22 -25
-9 18 13 -3 -12 -17 -21 -24
-8 18 12 -2 -11 -15 -19 -23
-6 18 12 0 -9 -14 -18 -21
-5 17 11 1 -8 -12 -16 -20
-3 17 10 2 -6 -11 -15 -18
-2 16 9 3 -5 -9 -13 -17
-2 15 7 3 -5 -9 -13 -16
0 14 5 2 -5 -9 -12 -15
1 13 3 1 -5 -8 -11 -13
1 12 2 1 -5 -8 -11 -12
2 11 0 0 -4 -7 -10 -11
2 11 0 -2 -5 -8 -10 -11
2 10 0 -3 -6 -9 -10 -11
3 9 -2 -4 -8 -10 -11 -11
3 9 -2 -5 -9 -11 -11 -11
4 8 -3 -6 -10 -12 -12 -10
4 7 -3 -6 -10 -12 -12 -10
4 5 -3 -7 -11 -12 -13 -10
4 4 -2 -8 -12 -13 -14 -10
4 2 -2 -8 -12 -13 -14 -10
3 1 0 -9 -13 -14 -15 -10
1 1 1 -9 -13 -14 -15 -10
-2 0 3 -9 -13 -14 -15 -10
-4 -2 4 -9 -14 -15 -15 -10
-5 -2 6 -9 -14 -15 -15 -10
-7 -3 7 -8 -15 -16 -16 -11
-9 -4 7 -8 -16 -17 -17 -12
-11 -5 8 -9 -17 -18 -18 -13
-13 -7 9 -10 -18 -19 -20 -15
-14 -8 9 -10 -19 -20 -21 -16
-16 -9 10 -11 -20 -21 -22 -17
-17 -10 10 -11 -20 -21 -22 -17
-18 -12 10 -12 -20 -21 -22 -17
-20 -13 10 -13 -21 -21 -22 -17
-21 -15 10 -13 -21 -21 -22 -17
-22 -16 9 -14 -22 -21 -23 -17
-22 -16 9 -14 -22 -21 -23 -17
-22 -16 9 -14 -22 -21 -23 -17
-22 -16 9 -13 -22 -21 -23 -17
-22 -16 9 -13 -22 -21 -23 -17
-21 -16 10 -12 -21 -21 -23 -17
-21 -16 10 -12 -21 -21 -23 -17
-21 -17 10 -12 -21 -21 -23 -17
-21 -18 11 -12 -21 -21 -23 -17
-21 -18 11 -12 -21 -21 -23 -17
-22 -19 12 -13 -22 -21 -24 -17
-22 -18 12 -12 -21 -20 -23 -17
-23 -18 12 -12 -20 -19 -23 -17
-24 -17 11 -11 -18 -18 -22 -17
-24 -16 11 -10 -17 -17 -21 -17
-25 -14 11 -5 -13 -14 -19 -18
-25 -11 16 8 -3 -5 -16 -18
-24 -7 20 21 9 5 -13 -17
-23 -3 25 34 19 13 -10 -16
-23 1 29 47 30 22 -7 -16
-17 8 32 56 40 33 1 -12
-2 22 30 57 53 49 19 1
14 36 27 58 65 64 37 12
29 51 24 59 76 80 56 23
45 65 21 60 89 96 74 35
60 88 7 49 97 114 104 59
74 127 -30 9 99 138 156 106
88 165 -66 -30 100 161 210 153
102 205 -103 -69 102 184 262 200
115 244 -140 -109 103 207 315 247
122 263 -165 -143 93 207 335 272
110 234 -171 -168 52 155 281 246
98 205 -176 -191 11 103 229 221
86 178 -181 -215 -30 52 176 195
73 149 -186 -239 -71 0 122 170
62 123 -186 -255 -104 -45 76 144
49 104 -170 -252 -122 -71 42 117
36 84 -154 -248 -141 -98 8 90
23 63 -139 -245 -159 -124 -27 63
11 44 -123 -242 -178 -152 -62 35
1 27 -107 -230 -184 -165 -85 16
-5 19 -91 -198 -161 -146 -79 10
-10 11 -74 -166 -139 -127 -75 4
-15 2 -57 -135 -116 -108 -70 -3
-20 -7 -40 -104 -94 -89 -66 -9
-24 -13 -27 -78 -75 -73 -61 -14
-24 -15 -21 -69 -68 -67 -56 -14
-24 -16 -15 -59 -60 -60 -50 -14
-24 -18 -9 -50 -52 -53 -45 -14
-24 -19 -3 -39 -45 -46 -39 -14
-25 -21 2 -32 -38 -40 -35 -14
-25 -21 3 -31 -37 -40 -35 -15
-25 -21 4 -29 -36 -39 -36 -17
-26 -21 5 -28 -35 -39 -36 -18
-26 -21 6 -26 -34 -38 -37 -20
-27 -21 7 -25 -33 -37 -38 -21
-27 -22 8 -24 -33 -36 -38 -21
-27 -23 8 -22 -32 -36 -38 -21
-27 -24 9 -21 -32 -35 -37 -21
-27 -26 10 -19 -31 -34 -37 -21
-28 -27 11 -18 -30 -33 -36 -22
-28 -27 12 -17 -29 -31 -35 -21
-28 -26 12 -16 -28 -29 -34 -21
-28 -26 13 -15 -27 -28 -33 -20
-28 -25 14 -14 -26 -26 -32 -19
-27 -25 15 -13 -25 -24 -31 -18
-27 -30 15 -12 -24 -24 -31 -17
-28 -35 16 -12 -22 -23 -30 -16
-28 -41 16 -11 -21 -23 -30 -15
-29 -47 17 -10 -19 -22 -29 -14
-30 -51 18 -9 -18 -21 -28 -13
-30 -55 19 -8 -17 -18 -25 -9
-30 -58 20 -6 -16 -15 -22 -6
-29 -62 21 -5 -15 -12 -19 -2
-29 -65 22 -3 -14 -9 -16 2
-28 -69 23 -2 -13 -7 -13 5
-28 -73 25 2 -11 -6 -12 7
-28 -77 26 4 -9 -4 -10 9
-28 -81 28 6 -8 -3 -9 10
-28 -86 29 9 -6 0 -7 12
-28 -89 31 11 -4 1 -6 14
-27 -89 31 11 -4 1 -6 14
-27 -89 31 11 -3 2 -6 14
-26 -89 31 12 -3 2 -6 13
-25 -89 31 12 -2 3 -6 13
-24 -89 32 13 0 4 -5 12
-24 -87 32 13 0 4 -5 10
-24 -83 32 13 0 4 -5 9
-25 -81 32 14 0 4 -6 7
-25 -79 32 14 0 4 -6 6
-26 -77 32 15 1 4 -7 4
-25 -77 32 15 2 5 -7 4
-24 -77 32 16 3 5 -7 4
-23 -77 31 16 4 6 -6 3
-22 -77 31 17 6 7 -6 3
-21 -78 30 18 7 8 -5 2
-20 -77 30 18 7 8 -5 2
-20 -76 30 19 7 8 -5 2
-19 -75 30 19 8 9 -5 2
-18 -74 30 20 8 9 -5 2
-17 -73 30 21 9 10 -4 1
-17 -71 30 22 10 12 -3 1
-17 -69 30 22 12 14 -2 1
-16 -66 29 23 13 15 0 1
-16 -64 29 24 14 17 1 1
-15 -62 28 25 16 19 2 2
-14 -61 27 26 16 19 2 1
-13 -61 26 27 16 20 2 0
-12 -60 25 28 17 20 1 -2
-10 -59 24 30 17 21 1 -4
-9 -58 23 31 18 22 0 -5
-9 -57 23 32 20 24 1 -5
-9 -55 22 33 21 26 2 -5
-8 -54 22 34 23 28 3 -4
-8 -53 21 35 24 30 5 -4
-7 -51 20 36 26 32 6 -3
-5 -51 20 39 29 35 9 -2
-3 -51 20 42 32 38 12 1
0 -51 19 44 35 42 15 2
2 -51 19 47 37 45 17 3
4 -51 18 49 40 48 20 5
5 -48 16 51 44 51 22 6
6 -45 14 53 46 53 24 8
7 -41 13 54 49 56 27 9
9 -38 11 56 52 59 29 10
10 -35 9 58 54 61 32 12
14 -35 9 62 58 65 35 15
17 -36 10 65 62 69 39 18
21 -36 11 69 66 73 44 21
24 -37 12 72 70 77 48 23
27 -38 13 75 73 80 52 26
28 -38 12 75 76 82 55 28
29 -38 11 76 78 86 58 30
30 -38 10 77 81 88 61 31
32 -38 9 78 85 91 64 33
33 -37 8 79 87 93 67 35
35 -34 7 80 89 95 70 37
37 -30 5 81 91 97 72 40
39 -27 4 82 93 99 75 43
42 -24 3 85 95 101 78 46
44 -21 1 86 97 103 80 48
44 -21 1 86 98 104 82 49
45 -21 1 87 100 106 85 51
46 -21 1 88 101 108 87 52
47 -21 1 89 102 109 89 53
48 -21 0 90 104 111 91 55
48 -20 0 90 104 111 91 55
49 -18 -2 89 104 111 91 55
49 -16 -2 89 103 111 92 55
50 -15 -3 88 103 111 92 55
51 -13 -4 87 102 111 93 56
51 -11 -5 86 101 110 93 57
51 -9 -6 84 100 109 93 58
51 -6 -7 82 99 108 93 59
51 -4 -9 81 98 106 93 60
50 -2 -10 79 97 105 93 61
49 -2 -9 77 94 102 91 61
48 -2 -7 74 92 99 89 61
47 -2 -5 72 89 96 86 60
46 -2 -4 69 87 93 84 60
45 -2 -2 67 84 89 81 59
42 0 -2 64 78 85 76 56
38 1 -2 60 74 79 72 53
35 2 -2 57 70 75 68 50
32 4 -2 54 66 70 64 47
29 5 -2 51 62 66 60 44
26 1 2 51 60 64 58 44
24 -4 4 50 58 61 56 44
21 -8 7 49 56 59 54 43
19 -12 9 48 54 56 52 43
16 -15 12 47 52 54 50 42
15 -15 12 44 47 49 45 38
13 -15 12 42 43 44 40 35
11 -14 11 38 38 39 35 33
10 -14 11 36 34 34 31 30
8 -13 10 33 30 30 27 27
6 -14 10 31 27 27 24 24
4 -15 11 29 24 23 21 21
2 -16 11 26 21 20 19 19
0 -17 12 24 18 17 16 16
-3 -18 13 22 15 14 13 13
-4 -19 13 21 14 13 12 12
-5 -20 14 20 13 12 10 11
-6 -21 14 19 12 11 8 10
-8 -22 15 18 11 9 7 8
-9 -23 16 17 10 8 5 7
-9 -23 16 17 9 7 4 7
-9 -22 16 17 8 6 2 7
-9 -22 16 17 7 5 1 6
-9 -21 16 17 6 4 0 6
-10 -20 15 16 5 3 -3 5
-10 -20 15 15 5 2 -3 5
-10 -20 15 14 4 1 -4 4
-11 -20 16 13 3 0 -4 3
-11 -20 16 11 2 -3 -5 2
-12 -20 17 10 1 -4 -6 1
-12 -20 16 9 0 -5 -6 0
-12 -21 15 8 -3 -6 -6 -2
-13 -21 14 7 -5 -7 -7 -3
-13 -22 13 6 -6 -9 -7 -5
-14 -23 12 5 -8 -10 -8 -6
-14 -23 12 5 -8 -10 -8 -6
-14 -22 12 5 -8 -10 -9 -6
-14 -21 12 5 -8 -10 -10 -5
-14 -20 12 5 -8 -10 -11 -5
-15 -19 12 4 -8 -10 -12 -4
-15 -20 12 4 -8 -10 -12 -4
-15 -21 12 4 -8 -10 -13 -5
-15 -22 13 4 -8 -10 -13 -5
-15 -23 13 4 -8 -10 -14 -6
-16 -24 14 5 -9 -11 -15 -7
-16 -24 14 5 -9 -11 -15 -7
-15 -24 14 5 -9 -11 -15 -7
-15 -23 14 5 -9 -11 -15 -7
-14 -23 14 5 -9 -11 -15 -7
-13 -22 14 6 -9 -11 -15 -6
-14 -22 14 6 -9 -11 -15 -6
-15 -22 14 6 -9 -11 -15 -6
-16 -21 13 6 -9 -11 -15 -5
-17 -21 13 6 -9 -11 -15 -5
-18 -20 12 6 -9 -11 -14 -4
-18 -21 13 7 -8 -10 -13 -4
-18 -22 14 9 -6 -9 -12 -3
-17 -23 15 10 -5 -8 -11 -3
-17 -25 16 11 -4 -6 -10 -2
-16 -26 17 13 -2 -5 -9 0
-16 -26 17 13 -2 -5 -9 0
-16 -26 17 13 -2 -5 -10 -2
-16 -25 17 13 -3 -6 -10 -2
-16 -25 17 13 -3 -6 -11 -3
-15 -24 17 12 -4 -7 -12 -4
-15 -24 17 12 -4 -7 -12 -4
-15 -24 17 13 -4 -6 -12 -4
-15 -24 17 13 -3 -6 -12 -4
-15 -24 17 14 -3 -5 -12 -4
-16 -25 17 15 -2 -4 -11 -4
-16 -25 17 15 -2 -4 -11 -4
-16 -24 17 15 -2 -4 -11 -4
-16 -23 17 15 0 -4 -11 -4
-16 -22 17 15 0 -4 -11 -4
-16 -21 18 16 1 -3 -10 -3
-16 -21 18 16 1 -3 -10 -3
-16 -22 18 16 1 -3 -10 -3
-15 -22 17 16 2 -3 -10 -3
-15 -23 17 16 2 -3 -10 -3
-14 -24 16 15 3 -2 -11 -4
-14 -22 16 15 3 -2 -11 -4
-14 -20 16 15 3 0 -11 -4
-14 -18 16 16 3 0 -11 -4
-14 -16 16 16 3 1 -11 -4
-14 -14 17 17 4 2 -10 -4
-14 -14 17 17 4 2 -10 -4
-14 -15 17 17 4 2 -10 -4
-14 -15 17 17 4 2 -10 -5
-14 -16 17 17 4 2 -10 -5
-13 -17 16 17 4 1 -9 -6
-13 -18 16 17 4 1 -9 -6
-14 -19 16 17 4 1 -9 -5
-15 -20 16 17 4 2 -9 -5
-16 -21 16 17 4 2 -9 -4
-17 -23 15 18 5 3 -8 -3
-17 -21 15 18 5 3 -8 -3
-17 -18 15 17 4 2 -8 -4
-16 -15 15 17 4 1 -9 -4
-16 -13 15 16 3 0 -9 -5
-15 -10 15 15 2 -2 -10 -6
-15 -11 15 15 2 -2 -10 -6
-15 -12 15 15 2 -2 -10 -6
-15 -13 16 14 2 -2 -10 -6
-15 -14 16 14 2 -2 -10 -6
-14 -15 17 13 2 -2 -10 -5
-14 -15 16 13 2 -2 -10 -5
-14 -16 15 13 1 -3 -10 -5
-14 -16 13 12 0 -4 -11 -5
-14 -17 12 12 -2 -5 -11 -5
-14 -18 10 11 -3 -6 -12 -6
-14 -18 10 11 -3 -6 -12 -6
-13 -17 11 11 -3 -6 -13 -6
-13 -17 11 10 -4 -7 -13 -6
-12 -16 12 10 -4 -7 -14 -6
-11 -15 13 9 -5 -8 -15 -7
-11 -15 13 9 -5 -8 -15 -7
-12 -15 13 8 -5 -9 -15 -7
-12 -14 12 7 -6 -10 -16 -7
-13 -14 12 6 -6 -11 -16 -7
-14 -13 11 5 -7 -12 -17 -8
-14 -13 11 5 -7 -12 -17 -8
-14 -14 11 5 -7 -12 -17 -8
-13 -15 11 5 -6 -12 -17 -7
-13 -16 11 5 -6 -12 -17 -7
-12 -17 11 6 -5 -11 -17 -6
-12 -21 11 6 -4 -10 -16 -4
-13 -26 12 7 -3 -9 -14 0
-14 -30 12 8 -2 -8 -13 2
-15 -35 13 9 0 -7 -11 4
-16 -39 14 10 2 -5 -9 7
-16 -40 15 10 2 -5 -9 7
-16 -41 16 10 2 -5 -9 7
-15 -44 17 10 2 -5 -9 8
-15 -45 18 10 2 -5 -9 8
-14 -47 19 11 1 -5 -10 9
-14 -47 19 11 1 -5 -10 9
-14 -47 19 11 1 -5 -10 9
-13 -46 19 11 1 -5 -10 9
-13 -46 19 11 1 -5 -10 9
-12 -45 18 11 2 -5 -9 9
-12 -45 18 11 2 -5 -9 9
-12 -45 18 12 2 -5 -9 9
-13 -46 19 12 2 -5 -9 9
-13 -46 19 13 2 -5 -9 9
-14 -47 20 14 3 -4 -10 8
-14 -47 20 14 3 -4 -10 8
-14 -47 20 13 3 -4 -10 8
-14 -46 19 13 3 -4 -10 8
-14 -46 19 12 3 -4 -10 8
-13 -45 18 11 2 -5 -11 7
-13 -45 18 11 2 -5 -11 7
-13 -45 18 11 2 -5 -11 6
-14 -45 18 11 2 -5 -11 6
-14 -45 18 11 2 -5 -11 5
-15 -46 19 12 2 -6 -12 4
-15 -45 18 12 2 -6 -12 4
-15 -44 17 11 1 -7 -13 3
-15 -41 16 10 1 -7 -14 3
-15 -40 15 9 0 -8 -15 2
-14 -38 14 8 -2 -9 -16 1
-14 -37 14 8 -2 -9 -16 0
-14 -36 14 8 -2 -9 -16 -2
-14 -35 14 8 -2 -10 -17 -3
-14 -34 14 8 -2 -10 -17 -4
-14 -33 14 8 -3 -11 -18 -6
-14 -33 14 8 -3 -11 -18 -6
-14 -33 14 8 -3 -11 -18 -6
-13 -33 14 7 -3 -11 -17 -6
-13 -33 14 7 -3 -11 -17 -6
-12 -34 15 6 -3 -11 -16 -5
-12 -33 15 6 -3 -11 -16 -5
-12 -31 15 6 -3 -11 -16 -5
-12 -29 14 6 -3 -12 -16 -6
-12 -27 14 6 -3 -12 -16 -6
-13 -25 13 7 -4 -13 -17 -7
-13 -25 13 7 -4 -13 -17 -7
-13 -24 13 7 -4 -13 -17 -7
-12 -24 13 7 -4 -13 -17 -8
-12 -23 13 7 -4 -13 -17 -8
-11 -22 13 6 -4 -12 -17 -9
-10 -19 14 7 -3 -11 -16 -8
-8 -16 15 9 -2 -10 -15 -7
-7 -13 16 11 1 -9 -14 -6
-5 -9 17 13 2 -8 -13 -5
-3 -6 18 15 4 -6 -11 -4
-3 -6 18 15 4 -6 -11 -4
-4 -6 18 14 4 -6 -11 -5
-4 -6 17 13 4 -6 -11 -5
-5 -6 17 12 4 -6 -11 -6
-6 -5 16 11 3 -7 -12 -7
-5 -4 14 12 4 -6 -10 -6
-4 -3 12 13 5 -4 -8 -5
-3 -2 10 14 7 -3 -6 -3
-2 0 8 15 8 0 -4 -2
1 2 6 17 10 2 -2 1
2 2 4 15 8 0 -3 0
3 3 2 12 6 -3 -5 -2
4 3 0 9 4 -5 -6 -3
5 4 -3 6 2 -7 -8 -4
6 5 -5 3 0 -9 -10 -5
6 5 -5 3 0 -9 -10 -5
7 6 -5 3 0 -9 -10 -5
7 6 -5 3 -2 -10 -11 -5
8 7 -5 3 -2 -10 -11 -5
9 8 -6 2 -3 -11 -12 -6
8 8 -6 1 -3 -12 -12 -6
7 7 -6 0 -4 -13 -13 -7
6 6 -6 -2 -4 -14 -13 -7
5 5 -6 -3 -5 -15 -14 -8
4 4 -7 -4 -6 -16 -15 -9
3 2 -5 -4 -6 -16 -15 -9
1 0 -3 -4 -7 -16 -16 -9
0 -3 0 -4 -8 -16 -17 -9
-3 -5 2 -4 -9 -16 -18 -9
-5 -7 4 -3 -10 -17 -19 -9
-6 -7 4 -4 -10 -18 -20 -10
-8 -7 4 -5 -11 -19 -21 -11
-9 -7 3 -6 -12 -21 -22 -12
-11 -7 3 -7 -13 -22 -23 -13
-13 -8 2 -8 -14 -24 -25 -15
-13 -7 2 -8 -14 -24 -25 -15
-13 -6 2 -8 -15 -25 -25 -16
-13 -5 2 -9 -15 -25 -26 -17
-13 -4 2 -9 -16 -26 -26 -18
-14 -2 1 -10 -17 -27 -27 -19
-13 0 1 -10 -17 -27 -27 -19
-12 1 1 -10 -17 -27 -27 -19
-11 2 1 -11 -17 -27 -27 -19
-10 3 1 -11 -17 -27 -27 -19
-9 4 1 -12 -17 -27 -26 -20
-10 4 1 -12 -17 -27 -26 -20
-11 4 1 -12 -17 -27 -27 -20
-13 4 1 -12 -18 -27 -27 -20
-14 4 1 -12 -18 -27 -28 -20
-16 4 0 -11 -19 -28 -29 -21
-16 4 0 -9 -17 -26 -28 -20
-16 4 1 -7 -14 -24 -27 -18
-16 4 1 -5 -11 -21 -25 -17
-16 4 2 -3 -8 -19 -24 -15
-15 5 3 0 -5 -16 -22 -13
-12 12 12 19 11 -4 -17 -13
-9 20 22 38 26 10 -12 -14
-6 27 31 57 42 23 -7 -15
-3 35 40 76 58 35 -2 -16
2 44 51 96 73 49 4 -17
21 73 24 68 78 67 38 12
40 103 -3 40 84 86 73 40
60 132 -29 12 89 104 108 70
79 161 -56 -16 94 123 142 99
99 191 -82 -44 99 142 177 128
103 210 -110 -69 99 152 207 158
108 229 -138 -95 99 163 238 189
112 248 -166 -120 99 175 268 219
117 267 -194 -147 99 186 299 250
122 286 -222 -173 99 196 328 280
105 253 -217 -198 36 121 250 236
87 218 -212 -224 -26 46 170 191
68 184 -206 -249 -89 -30 90 147
51 150 -201 -276 -150 -105 10 102
32 115 -196 -302 -213 -181 -69 58
26 99 -176 -272 -197 -172 -73 45
19 81 -155 -242 -182 -162 -77 31
12 65 -134 -213 -165 -152 -81 18
5 48 -113 -183 -150 -143 -86 5
-3 30 -92 -153 -134 -133 -90 -10
-5 26 -78 -134 -119 -119 -82 -11
-7 22 -65 -114 -104 -106 -75 -13
-9 18 -52 -95 -89 -92 -67 -14
-11 14 -38 -75 -73 -78 -60 -16
-14 9 -25 -56 -58 -64 -52 -18
-14 7 -23 -52 -55 -61 -51 -18
-15 5 -21 -48 -52 -58 -50 -18
-15 4 -18 -43 -49 -56 -49 -18
-16 2 -16 -38 -46 -53 -48 -18
-16 0 -14 -34 -43 -50 -47 -18
-17 -2 -12 -31 -40 -48 -46 -18
-17 -2 -10 -29 -39 -47 -45 -18
-17 -2 -8 -27 -37 -45 -45 -18
-17 -2 -6 -25 -36 -44 -44 -18
-17 -2 -5 -23 -35 -43 -44 -18
-18 -3 -3 -22 -34 -41 -43 -18
-19 -5 -2 -21 -34 -40 -43 -18
-20 -6 0 -20 -34 -40 -43 -18
-21 -8 1 -19 -34 -39 -43 -18
-21 -9 2 -18 -34 -39 -43 -18
-22 -10 3 -17 -33 -38 -41 -18
-22 -11 4 -16 -32 -37 -40 -18
-21 -12 4 -16 -32 -36 -40 -18
-21 -13 5 -15 -31 -35 -39 -18
-21 -13 5 -15 -31 -34 -39 -18
-20 -14 6 -14 -30 -33 -38 -19
-19 -14 6 -14 -29 -33 -38 -18
-19 -14 6 -14 -29 -32 -38 -18
-18 -14 6 -14 -28 -32 -38 -17
-18 -14 6 -14 -28 -32 -38 -17
-17 -13 6 -13 -27 -31 -37 -16
-18 -14 6 -12 -27 -30 -37 -16
-19 -15 6 -11 -26 -29 -37 -16
-20 -16 6 -10 -26 -28 -37 -16
-20 -16 6 -10 -26 -27 -37 -16
-21 -17 7 -9 -25 -26 -37 -17
-20 -18 7 -9 -25 -26 -36 -16
-20 -18 7 -9 -24 -26 -35 -16
-19 -19 7 -9 -24 -26 -34 -15
-19 -19 7 -9 -24 -26 -34 -15
-18 -20 6 -8 -23 -26 -33 -14
-17 -20 6 -8 -23 -25 -33 -14
-17 -19 6 -8 -23 -25 -33 -14
-16 -19 6 -8 -23 -24 -33 -14
-16 -19 6 -8 -23 -24 -33 -14
-15 -18 6 -7 -22 -23 -33 -14
-15 -19 6 -6 -21 -22 -33 -14
-14 -19 6 -5 -21 -21 -33 -15
-14 -20 6 -4 -20 -20 -33 -15
-14 -20 6 -4 -20 -20 -33 -15
-13 -21 7 -2 -18 -18 -31 -16
-13 -20 8 0 -16 -16 -29 -15
-13 -20 9 2 -15 -15 -27 -15
-13 -19 10 3 -13 -13 -25 -14
-13 -19 11 4 -12 -12 -24 -14
-12 -18 12 5 -11 -11 -23 -13
-11 -18 11 5 -11 -11 -23 -13
-11 -17 10 6 -10 -11 -23 -13
-10 -17 9 6 -10 -11 -23 -13
-10 -17 8 6 -10 -11 -23 -13
-9 -16 7 7 -8 -9 -23 -14
-8 -17 7 8 -7 -7 -22 -13
-7 -17 7 9 -5 -6 -21 -12
-6 -18 7 10 -4 -4 -20 -11
-6 -18 7 11 -3 -3 -19 -11
-5 -19 7 13 0 1 -17 -10
-5 -19 7 15 2 4 -15 -10
-5 -18 7 16 4 6 -14 -10
-5 -18 7 18 6 9 -12 -10
-5 -18 7 19 7 11 -11 -10
-3 -16 7 22 10 14 -8 -8
-2 -14 7 25 12 17 -5 -6
1 -12 7 27 15 20 -3 -5
2 -10 7 30 17 23 1 -3
3 -9 7 32 19 25 3 -2
6 -7 6 34 22 28 6 1
8 -6 5 36 25 31 8 2
10 -5 4 38 27 34 10 3
12 -4 3 40 30 37 12 4
14 -3 2 42 32 39 14 5
16 -2 1 45 35 43 17 6
17 0 1 47 38 46 19 7
19 0 1 50 42 48 22 8
20 1 1 52 45 51 24 9
21 1 1 54 47 53 26 10
24 3 -2 56 50 57 30 13
28 4 -3 58 53 60 33 15
31 5 -4 59 56 63 36 18
34 6 -5 61 59 67 40 20
37 7 -6 62 61 70 44 22
39 8 -7 65 65 73 47 25
42 8 -7 68 68 76 51 27
43 8 -8 70 71 79 54 30
45 8 -8 73 75 82 57 32
46 8 -8 75 78 86 60 34
47 11 -10 76 79 88 63 36
48 13 -11 76 80 90 65 37
49 16 -12 76 81 91 67 39
50 18 -13 76 82 93 69 40
50 20 -14 76 84 94 71 42
52 22 -15 76 85 95 72 44
53 24 -16 76 86 96 73 45
55 26 -16 76 87 96 74 47
56 28 -17 76 88 97 75 48
57 29 -17 76 88 97 76 49
58 31 -18 76 89 98 77 50
58 33 -19 74 88 97 77 50
58 34 -20 72 87 96 76 50
58 36 -21 70 86 95 76 50
58 37 -22 69 85 95 76 50
59 38 -22 68 84 94 75 51
58 37 -21 67 82 93 75 52
58 37 -20 67 81 92 75 54
57 36 -19 66 80 91 75 55
57 36 -18 66 79 91 75 56
54 35 -17 63 75 87 74 57
51 34 -16 60 71 82 72 56
48 33 -16 57 67 78 70 55
45 32 -15 55 64 75 68 54
42 32 -15 52 60 71 66 53
39 31 -13 50 57 67 62 51
37 30 -11 48 53 64 57 49
35 30 -9 46 50 60 53 47
33 29 -7 44 47 56 49 45
32 29 -5 42 44 53 45 43
28 27 -4 38 40 49 40 39
25 24 -3 36 36 46 37 37
22 22 -3 34 33 42 33 35
18 20 -2 31 30 37 29 32
15 18 -2 29 27 34 26 30
13 16 1 27 24 31 23 28
11 15 3 25 21 28 20 26
10 13 4 24 18 25 17 24
8 12 6 22 16 22 14 22
7 11 7 21 13 19 11 21
5 9 8 20 11 17 9 20
4 7 9 19 10 15 7 19
2 6 10 18 8 13 5 18
1 4 11 17 7 11 3 17
0 3 11 17 6 10 2 17
-2 1 12 15 4 8 0 15
-3 0 12 14 3 7 -3 13
-4 -3 12 12 2 5 -4 12
-5 -4 12 11 1 4 -6 10
-5 -5 12 10 0 3 -7 9
-6 -6 11 9 -2 2 -8 8
-6 -6 12 9 -3 1 -9 8
-7 -6 13 8 -4 1 -10 7
-7 -6 14 8 -5 0 -11 7
-7 -6 15 8 -5 0 -11 7
-8 -6 15 6 -6 -2 -12 5
-8 -6 14 5 -7 -3 -13 4
-9 -6 13 4 -8 -4 -14 2
-9 -6 12 3 -9 -5 -15 1
-9 -6 11 2 -9 -6 -15 0
-10 -6 10 1 -10 -7 -16 -2
-10 -7 10 1 -10 -7 -16 -2
-11 -7 11 1 -10 -7 -16 -2
-11 -8 11 1 -10 -7 -16 -2
-11 -8 11 1 -10 -7 -16 -2
-12 -9 12 1 -11 -8 -16 -2
-12 -9 12 1 -11 -8 -16 -2
-12 -10 12 1 -11 -8 -16 -2
-12 -10 12 1 -11 -8 -16 -2
-12 -10 12 1 -11 -8 -16 -2
-11 -11 13 1 -12 -8 -17 -3
-11 -12 13 1 -12 -8 -17 -3
-12 -13 13 1 -12 -8 -17 -3
-12 -14 13 1 -12 -8 -17 -3
-12 -14 13 1 -12 -8 -17 -3
-13 -14 13 2 -11 -8 -16 -2
-13 -13 13 2 -12 -8 -17 -3
-13 -11 13 1 -12 -9 -18 -4
-13 -9 13 1 -13 -9 -19 -5
-13 -8 13 1 -13 -9 -19 -5
-13 -9 12 0 -14 -10 -20 -6
-13 -11 13 1 -13 -10 -20 -6
-13 -14 13 2 -13 -10 -20 -5
-13 -17 14 3 -12 -10 -20 -5
-13 -19 14 4 -12 -10 -20 -5
-14 -19 15 5 -11 -9 -19 -4
-14 -18 15 5 -11 -9 -19 -5
-14 -16 15 5 -11 -9 -20 -6
-14 -14 15 5 -11 -9 -20 -7
-14 -13 15 5 -11 -9 -20 -7
-13 -12 15 4 -11 -9 -21 -8
-13 -11 15 5 -10 -8 -20 -7
-13 -10 16 6 -9 -7 -19 -7
-13 -9 16 7 -8 -6 -18 -6
-13 -8 16 8 -7 -5 -18 -6
-12 -7 17 9 -6 -4 -17 -5
-12 -7 17 9 -6 -4 -17 -5
-11 -7 17 9 -6 -4 -17 -5
-11 -7 17 9 -6 -4 -17 -5
-11 -7 17 9 -6 -4 -17 -5
-10 -8 17 8 -6 -5 -17 -6
-10 -8 17 9 -5 -5 -17 -6
-11 -8 17 9 -5 -5 -17 -7
-11 -8 17 10 -4 -5 -17 -7
-11 -8 17 10 -4 -5 -17 -7
-12 -8 17 11 -3 -4 -18 -8
-12 -9 17 11 -3 -4 -18 -8
-12 -9 17 11 -3 -4 -18 -9
-12 -10 17 11 -3 -4 -18 -9
-12 -10 17 11 -3 -4 -18 -9
-13 -11 16 12 -2 -3 -17 -10
-13 -11 16 12 -2 -3 -17 -10
-13 -11 16 12 -2 -3 -17 -10
-13 -11 16 12 -2 -3 -17 -10
-13 -11 16 12 -2 -3 -17 -10
-12 -11 15 11 -3 -2 -16 -9
-13 -10 15 11 -3 -2 -16 -9
-14 -10 16 11 -2 -2 -16 -8
-15 -9 16 11 -2 -2 -16 -8
-15 -9 16 11 -2 -2 -16 -8
-16 -8 17 12 0 0 -16 -7
-14 -8 17 12 0 0 -16 -7
-13 -8 16 12 0 0 -16 -8
-12 -8 16 12 0 0 -16 -8
-11 -8 16 12 0 0 -16 -8
-10 -8 15 11 -2 -2 -15 -9
-10 -8 15 11 -2 -2 -15 -9
-10 -8 16 11 -2 -2 -15 -9
-10 -8 16 11 -2 -2 -15 -9
-10 -8 16 11 -2 -2 -15 -9
-10 -8 17 11 -2 -2 -15 -9
-10 -8 17 10 -2 -2 -15 -9
-9 -8 16 10 -3 -3 -15 -9
-9 -8 16 9 -3 -3 -15 -9
-9 -8 16 9 -3 -3 -15 -9
-8 -7 15 8 -4 -4 -16 -9
-8 -6 15 8 -4 -5 -16 -9
-8 -5 15 7 -4 -5 -16 -9
-8 -4 15 7 -4 -6 -16 -9
-8 -4 15 7 -4 -6 -16 -9
-9 -3 14 6 -5 -7 -17 -10
-9 -4 14 5 -5 -8 -17 -10
-9 -5 14 4 -6 -8 -18 -10
-9 -6 14 3 -6 -9 -18 -10
-9 -7 14 3 -6 -9 -18 -10
-10 -8 13 2 -7 -10 -19 -9
-10 -6 13 2 -7 -10 -19 -9
-10 -5 13 2 -7 -10 -19 -9
-10 -4 13 2 -7 -10 -19 -9
-10 -3 13 2 -7 -10 -19 -9
-9 -3 12 2 -8 -10 -19 -9
-9 -4 12 2 -8 -10 -19 -9
-10 -5 12 2 -8 -11 -19 -9
-10 -7 12 2 -8 -11 -19 -9
-10 -8 12 2 -8 -11 -19 -9
-11 -9 11 1 -9 -12 -18 -9
-11 -8 11 1 -9 -13 -19 -10
-11 -7 11 0 -10 -13 -19 -10
-11 -6 11 0 -10 -14 -20 -11
-11 -6 11 0 -10 -14 -20 -11
-11 -5 10 -2 -11 -15 -21 -12
-11 -5 10 -2 -11 -15 -21 -12
-11 -4 9 -2 -10 -14 -21 -11
-11 -4 9 -2 -10 -14 -21 -11
-11 -4 9 -2 -10 -14 -21 -11
-11 -3 8 0 -9 -13 -20 -10
-11 -5 9 0 -9 -13 -20 -10
-11 -6 10 0 -9 -13 -19 -9
-11 -7 11 0 -9 -13 -19 -9
-11 -8 12 0 -9 -13 -19 -9
-11 -9 13 0 -8 -12 -18 -8
-11 -9 13 0 -8 -13 -18 -8
-11 -9 12 0 -9 -13 -19 -9
-11 -9 12 0 -9 -14 -19 -9
-11 -9 12 0 -9 -14 -19 -9
-11 -9 11 -2 -10 -15 -20 -10
-11 -8 11 -2 -10 -15 -20 -10
-11 -8 10 -3 -10 -15 -20 -10
-11 -7 10 -3 -10 -15 -20 -10
-11 -7 10 -3 -10 -15 -20 -10
-10 -6 9 -4 -9 -15 -21 -10
-10 -6 9 -4 -10 -15 -21 -10
-10 -5 9 -4 -11 -16 -21 -10
-10 -5 9 -4 -12 -16 -21 -10
-10 -5 9 -4 -12 -16 -21 -10
-10 -4 10 -5 -13 -17 -22 -10
-10 -4 10 -5 -12 -17 -22 -10
-10 -4 10 -4 -12 -16 -22 -10
-10 -4 10 -4 -11 -16 -22 -10
-10 -4 10 -4 -11 -16 -22 -10
-10 -5 10 -3 -10 -15 -21 -11
-10 -4 10 -4 -10 -16 -21 -12
-10 -4 10 -4 -10 -17 -22 -12
-10 -3 10 -5 -10 -18 -22 -13
-10 -3 10 -5 -10 -18 -22 -13
-10 -2 10 -6 -10 -19 -23 -14
-10 -3 10 -6 -10 -19 -22 -13
-10 -4 9 -5 -10 -18 -22 -13
-10 -5 9 -5 -10 -18 -21 -12
-10 -5 9 -5 -10 -18 -21 -12
-10 -6 8 -4 -11 -17 -20 -11
-10 -5 8 -4 -11 -17 -20 -11
-10 -4 8 -4 -11 -17 -20 -11
-10 -3 8 -4 -11 -17 -20 -11
-10 -3 8 -4 -11 -17 -20 -11
-10 -2 9 -5 -11 -18 -20 -11
-9 0 9 -5 -10 -17 -20 -11
-8 1 9 -4 -9 -17 -19 -11
-7 2 9 -4 -8 -16 -19 -11
-7 3 9 -4 -8 -16 -19 -11
-6 4 10 -3 -7 -14 -18 -11
-5 5 12 -2 -6 -13 -17 -10
-4 5 14 0 -5 -12 -17 -9
-3 6 16 1 -4 -10 -16 -8
-2 6 18 1 -3 -9 -16 -8
0 7 19 2 -2 -8 -15 -7
0 8 19 4 0 -7 -14 -6
0 8 19 5 1 -6 -13 -6
0 9 19 6 2 -5 -12 -5
0 9 19 7 3 -5 -12 -5
2 11 19 8 4 -4 -10 -4
5 12 18 10 5 -3 -8 -3
7 14 17 11 6 -2 -5 -2
10 16 15 12 7 0 -3 0
12 17 14 13 7 0 0 0
13 17 11 13 7 0 0 1
13 16 8 10 6 -2 -2 1
13 15 5 7 4 -4 -4 2
13 13 2 5 3 -5 -5 2
13 12 -2 2 1 -7 -7 2
12 11 -3 1 0 -8 -8 3
12 12 -3 1 0 -8 -8 2
12 12 -3 0 -2 -8 -8 2
12 13 -3 0 -2 -8 -8 1
12 13 -3 0 -2 -8 -8 1
12 13 -3 -2 -3 -8 -8 0
12 12 -2 -2 -3 -8 -8 0
11 11 0 -2 -3 -8 -8 0
11 9 1 -2 -3 -8 -8 0
11 8 2 -2 -3 -8 -8 0
8 7 3 -2 -3 -9 -9 -2
5 5 4 -3 -4 -11 -10 -3
2 4 4 -3 -5 -12 -11 -4
-2 3 5 -4 -6 -13 -13 -6
-6 2 5 -4 -7 -14 -14 -7
-7 0 6 -5 -8 -15 -15 -8
-8 -2 6 -6 -9 -16 -16 -9
-9 -4 6 -7 -10 -17 -17 -9
-10 -5 6 -7 -11 -17 -17 -10
-11 -7 6 -8 -12 -18 -18 -10
-12 -8 7 -9 -13 -19 -19 -11
-12 -8 7 -9 -13 -19 -19 -11
-13 -7 7 -9 -13 -19 -19 -12
-13 -7 7 -9 -13 -19 -19 -12
-13 -7 7 -9 -13 -19 -19 -12
-14 -6 8 -9 -14 -19 -20 -13
-14 -7 9 -9 -14 -19 -20 -13
-15 -7 9 -9 -14 -19 -20 -13
-15 -8 10 -9 -14 -19 -20 -13
-15 -8 10 -9 -14 -19 -20 -13
-16 -9 11 -9 -13 -18 -20 -13
-16 -10 11 -9 -13 -18 -20 -13
-16 -10 11 -9 -13 -18 -20 -13
-16 -11 11 -9 -13 -18 -20 -13
-16 -11 11 -9 -13 -18 -20 -13
-15 -10 10 -8 -13 -17 -20 -14
-15 -6 11 -5 -10 -14 -18 -14
-15 -2 11 -2 -8 -11 -17 -14
-15 3 12 2 -6 -8 -15 -14
-15 6 12 5 -3 -5 -13 -14
-14 10 19 18 9 5 -9 -15
-12 14 28 36 25 16 -4 -15
-10 17 37 55 40 28 2 -14
-8 21 48 73 56 40 7 -14
-6 24 57 91 71 52 12 -14
10 44 45 80 79 66 33 4
31 69 21 57 84 81 63 28
53 94 -2 33 88 98 92 52
74 119 -25 10 93 113 120 76
96 144 -48 -14 97 129 149 101
107 168 -74 -39 101 145 184 133
114 190 -102 -67 104 160 221 170
120 213 -129 -94 107 177 258 205
128 235 -156 -121 110 193 296 242
135 258 -184 -149 114 210 332 278
125 240 -192 -174 74 164 292 260
105 205 -189 -199 16 93 216 216
87 170 -186 -224 -43 22 141 172
67 135 -183 -248 -102 -50 65 129
49 99 -180 -273 -160 -121 -10 85
37 77 -165 -263 -171 -140 -37 62
28 61 -145 -235 -158 -134 -43 48
19 45 -126 -207 -147 -127 -49 33
11 29 -105 -180 -135 -120 -55 19
2 13 -85 -153 -122 -113 -61 5
-4 6 -69 -132 -109 -104 -60 -3
-7 2 -56 -112 -95 -92 -56 -7
-10 -2 -43 -94 -81 -80 -51 -10
-13 -6 -29 -75 -67 -68 -47 -14
-17 -9 -16 -56 -54 -57 -41 -17
-19 -12 -9 -47 -47 -51 -39 -20
-20 -15 -6 -41 -43 -48 -38 -22
-22 -17 -3 -36 -39 -44 -37 -23
-23 -19 1 -31 -35 -40 -36 -25
-25 -22 4 -26 -32 -37 -35 -27
-26 -23 5 -24 -30 -35 -34 -28
-26 -23 6 -22 -30 -35 -34 -29
-26 -23 7 -21 -30 -34 -35 -30
-26 -23 8 -19 -30 -34 -35 -31
-26 -23 9 -18 -30 -34 -35 -32
-27 -22 10 -17 -30 -33 -36 -33
-25 -21 10 -17 -30 -33 -36 -33
-24 -21 10 -17 -30 -33 -36 -34
-23 -20 10 -17 -30 -33 -36 -34
-22 -20 10 -17 -30 -33 -36 -34
-21 -19 9 -16 -30 -32 -37 -35
-21 -19 10 -14 -30 -30 -36 -36
-22 -19 10 -13 -29 -29 -35 -36
-22 -19 11 -12 -29 -27 -35 -37
-22 -19 11 -11 -29 -26 -34 -37
-23 -19 12 -10 -28 -25 -33 -38
-23 -19 12 -10 -28 -25 -33 -38
-23 -19 12 -10 -27 -25 -33 -38
-23 -19 12 -10 -27 -25 -33 -38
-23 -19 12 -10 -27 -25 -33 -38
-22 -19 11 -11 -26 -25 -34 -39
-22 -19 11 -11 -26 -25 -34 -39
-23 -18 11 -11 -26 -25 -34 -38
-23 -18 11 -11 -26 -25 -34 -38
-23 -18 11 -11 -26 -25 -34 -38
-24 -17 11 -10 -26 -24 -33 -37
-24 -19 11 -10 -26 -24 -33 -37
-23 -20 11 -10 -26 -23 -32 -37
-23 -22 11 -10 -26 -23 -31 -37
-23 -23 11 -10 -26 -23 -31 -37
-22 -24 12 -10 -27 -22 -30 -38
-22 -22 12 -10 -27 -22 -30 -38
-21 -21 12 -9 -27 -22 -29 -38
-20 -19 12 -9 -27 -22 -28 -38
-20 -18 12 -9 -27 -22 -28 -38
-19 -17 11 -8 -26 -21 -27 -37
-18 -16 11 -8 -26 -21 -27 -37
-17 -15 11 -7 -25 -20 -26 -37
-17 -15 11 -6 -25 -19 -25 -37
-16 -14 11 -6 -25 -19 -25 -37
-15 -13 11 -5 -24 -18 -24 -37
-15 -13 11 -5 -24 -18 -24 -37
-15 -14 10 -5 -24 -17 -24 -38
-15 -15 9 -5 -24 -16 -24 -39
-15 -15 9 -5 -24 -16 -24 -39
-15 -16 8 -5 -24 -15 -25 -40
-14 -16 8 -5 -23 -15 -25 -40
-13 -15 8 -4 -22 -14 -24 -39
-13 -14 8 -3 -22 -13 -24 -39
-12 -14 8 -3 -21 -13 -24 -39
-11 -12 7 -2 -19 -11 -22 -38
-11 -11 7 1 -18 -9 -21 -37
-10 -9 7 2 -16 -7 -19 -36
-9 -8 7 4 -15 -4 -17 -36
-9 -6 7 5 -13 -2 -15 -35
-8 -5 7 7 -12 0 -14 -34
-7 -6 7 8 -11 2 -12 -33
-6 -7 6 10 -9 3 -11 -32
-5 -7 6 11 -8 5 -9 -32
-4 -8 6 13 -7 6 -8 -31
-3 -9 5 14 -6 8 -7 -30
-2 -7 4 15 -4 10 -6 -30
0 -6 3 16 -3 12 -5 -30
1 -4 3 17 0 14 -4 -30
2 -3 2 18 1 16 -3 -30
4 -2 1 20 3 18 0 -28
5 -2 0 22 5 21 3 -27
7 0 -2 25 8 23 5 -25
8 1 -3 27 10 26 8 -24
10 1 -4 30 13 29 11 -22
13 2 -5 32 15 31 13 -21
16 3 -6 34 17 33 15 -20
19 4 -7 36 19 36 17 -19
22 4 -7 38 21 38 19 -19
25 5 -8 40 24 42 22 -18
28 6 -9 42 26 44 25 -16
30 7 -9 43 27 47 28 -13
32 8 -10 44 29 50 31 -11
34 8 -10 45 30 53 34 -8
37 9 -10 46 32 56 37 -5
39 11 -11 47 34 59 40 -3
40 13 -12 49 37 62 44 -2
43 16 -13 51 40 64 47 1
45 18 -14 52 44 67 50 3
47 21 -15 54 47 70 52 5
49 23 -16 55 50 72 55 7
51 25 -17 57 52 73 57 8
53 27 -19 58 54 75 59 10
55 29 -20 60 56 77 61 12
58 32 -21 61 58 79 64 14
59 33 -22 62 59 80 65 15
60 35 -22 62 59 80 67 16
61 36 -22 62 59 81 69 18
61 38 -22 62 59 82 70 19
62 39 -22 62 59 82 72 20
63 42 -23 61 60 84 73 21
63 44 -25 59 59 84 73 21
64 46 -27 58 58 82 73 21
64 48 -28 56 58 81 73 21
64 50 -30 55 57 81 73 21
65 51 -31 54 56 80 72 20
65 49 -30 54 56 80 72 22
65 48 -29 53 55 79 72 23
65 46 -29 53 55 79 72 25
65 45 -28 53 55 79 72 26
63 44 -27 51 53 77 72 27
60 44 -26 48 49 73 69 27
56 44 -25 46 46 70 67 26
53 44 -25 43 43 67 64 26
49 44 -24 40 39 64 62 26
47 43 -23 37 35 60 59 25
46 43 -22 35 32 57 56 23
44 43 -21 33 29 53 53 22
43 43 -21 31 25 50 50 20
42 43 -20 28 22 46 47 19
38 43 -18 27 19 43 44 17
34 40 -15 26 18 42 42 16
30 38 -12 25 16 39 39 14
26 36 -9 24 14 37 37 12
22 33 -7 23 12 35 34 10
19 31 -5 22 10 33 32 8
17 29 -3 21 8 30 29 7
15 27 -2 19 6 27 26 5
13 25 1 18 4 24 23 3
11 22 2 17 1 22 21 1
10 21 3 15 -2 19 18 -2
8 20 3 13 -5 16 14 -5
7 18 3 11 -8 13 11 -7
5 17 3 9 -11 10 8 -10
4 16 3 6 -13 7 5 -12
3 15 2 5 -15 5 3 -14
2 15 2 4 -16 4 1 -15
0 14 2 3 -17 2 0 -16
-2 14 2 3 -18 1 -3 -16
-3 14 2 2 -19 0 -4 -17
-4 12 2 1 -20 -2 -5 -18
-5 8 3 1 -20 -2 -5 -18
-6 5 4 1 -20 -3 -5 -18
-6 1 4 1 -20 -3 -5 -18
-7 -3 5 1 -20 -3 -5 -18
-8 -5 6 1 -20 -4 -4 -19
-8 -4 6 1 -20 -4 -4 -19
-8 -2 5 0 -21 -5 -5 -19
-8 0 5 -2 -21 -5 -6 -19
-8 1 5 -2 -21 -5 -6 -19
-7 2 4 -3 -22 -6 -7 -19
-7 2 4 -4 -23 -7 -8 -20
-8 1 5 -5 -24 -8 -9 -21
-8 1 6 -6 -25 -9 -9 -21
-8 1 6 -7 -26 -10 -10 -22
-9 0 7 -8 -27 -11 -11 -23
-9 0 7 -8 -27 -11 -11 -23
-10 0 7 -8 -27 -11 -11 -23
-11 0 7 -8 -27 -11 -11 -23
-11 0 7 -8 -27 -11 -11 -23
-12 0 8 -7 -27 -10 -12 -22
-12 0 8 -7 -27 -10 -12 -22
-11 0 8 -7 -27 -10 -12 -22
-10 0 8 -7 -27 -10 -12 -22
-10 0 8 -7 -27 -10 -12 -22
-9 1 8 -7 -28 -10 -12 -23
-9 1 8 -7 -28 -10 -12 -23
-10 0 8 -6 -28 -10 -12 -23
-10 0 8 -6 -28 -10 -12 -23
-10 0 8 -6 -28 -10 -12 -23
-11 -2 9 -5 -27 -10 -13 -22
-11 -2 9 -5 -27 -10 -13 -22
-11 -2 9 -5 -27 -10 -13 -21
-11 -2 9 -5 -27 -10 -13 -21
-11 -2 9 -5 -27 -10 -13 -21
-10 -2 9 -5 -27 -11 -12 -20
-10 -3 9 -5 -27 -11 -12 -20
-10 -5 9 -5 -27 -11 -11 -19
-10 -6 9 -5 -27 -11 -11 -19
-10 -7 9 -5 -27 -11 -11 -19
-11 -8 9 -4 -26 -10 -10 -18
-11 -7 9 -4 -26 -10 -10 -18
-11 -6 9 -3 -26 -10 -11 -19
-11 -5 9 -2 -26 -10 -11 -20
-11 -4 9 -2 -26 -10 -11 -20
-10 -3 8 0 -26 -10 -12 -21
-10 -3 8 1 -25 -10 -12 -21
-10 -3 9 2 -24 -9 -11 -21
-10 -3 9 2 -23 -8 -10 -21
-10 -3 9 3 -22 -8 -10 -21
-9 -2 10 4 -21 -7 -9 -20
-9 -3 10 4 -21 -7 -9 -20
-10 -4 9 4 -21 -7 -9 -20
-10 -4 9 4 -21 -7 -9 -20
-10 -5 9 4 -21 -7 -9 -20
-11 -6 8 4 -20 -8 -8 -19
-11 -5 8 4 -20 -8 -8 -18
-11 -4 9 4 -19 -7 -7 -17
-11 -4 10 4 -18 -6 -7 -17
-11 -3 10 4 -18 -6 -7 -16
-10 -2 11 5 -17 -5 -6 -15
-10 -3 11 5 -17 -5 -6 -15
-9 -4 11 5 -17 -4 -5 -14
-9 -4 11 5 -17 -4 -5 -14
-9 -5 11 5 -17 -4 -5 -14
-8 -6 12 6 -16 -3 -4 -13
-8 -5 12 6 -16 -3 -4 -13
-7 -4 11 6 -16 -3 -4 -14
-7 -3 11 6 -16 -3 -4 -14
-7 -2 11 6 -16 -3 -4 -14
-6 0 10 5 -16 -3 -5 -15
-6 0 10 4 -16 -4 -5 -15
-7 1 9 3 -17 -5 -6 -15
-7 2 9 3 -18 -6 -6 -15
-7 2 9 2 -18 -7 -6 -15
-8 3 8 1 -19 -8 -7 -15
-7 3 8 1 -19 -8 -7 -15
-6 3 9 2 -18 -7 -6 -14
-6 3 9 2 -18 -6 -5 -13
-5 3 9 2 -18 -6 -5 -13
-4 2 10 3 -17 -5 -4 -12
-4 1 10 3 -17 -5 -4 -12
-5 0 10 2 -18 -6 -5 -12
-5 -2 10 1 -18 -7 -5 -12
-5 -3 10 1 -18 -7 -5 -12
-6 -4 10 0 -19 -8 -6 -12
-6 -3 9 0 -19 -8 -6 -12
-5 -2 8 -2 -20 -9 -7 -12
-5 0 8 -3 -20 -9 -7 -12
-5 1 7 -3 -20 -9 -7 -12
-4 2 6 -4 -21 -10 -8 -12
-4 1 6 -4 -21 -10 -8 -10
-3 0 7 -4 -20 -10 -7 -9
-3 -2 8 -4 -20 -10 -6 -8
-3 -3 8 -4 -20 -10 -6 -6
-2 -4 9 -3 -19 -10 -5 -5
-3 -4 9 -3 -19 -10 -5 -5
-4 -4 9 -4 -19 -11 -5 -5
-6 -4 9 -5 -19 -12 -6 -5
-7 -4 9 -5 -19 -12 -6 -5
-8 -4 8 -6 -20 -13 -7 -6
-8 -4 8 -6 -20 -13 -8 -6
-8 -3 8 -6 -20 -13 -8 -6
-7 -2 7 -7 -21 -14 -9 -7
-7 -2 7 -7 -21 -14 -10 -7
-6 0 6 -8 -22 -15 -11 -8
-6 0 6 -8 -22 -15 -11 -9
-6 0 6 -8 -22 -15 -12 -9
-6 1 6 -8 -23 -16 -13 -10
-6 1 6 -8 -23 -16 -13 -11
-7 2 7 -9 -24 -17 -14 -12
-7 0 7 -9 -23 -17 -13 -10
-7 -2 7 -9 -22 -17 -13 -9
-7 -3 6 -9 -21 -16 -12 -8
-7 -5 6 -9 -20 -16 -11 -6
-6 -6 5 -8 -19 -15 -10 -5
-6 -6 5 -8 -19 -15 -10 -5
-6 -5 5 -8 -19 -15 -10 -6
-6 -4 6 -8 -19 -15 -10 -7
-6 -4 6 -8 -19 -15 -10 -7
-7 -3 7 -8 -20 -14 -11 -8
-7 -4 7 -8 -20 -14 -11 -8
-7 -5 7 -8 -20 -14 -11 -8
-7 -6 7 -8 -20 -14 -11 -7
-7 -7 7 -8 -20 -14 -11 -7
-8 -8 8 -8 -19 -15 -12 -6
-8 -7 8 -8 -19 -16 -12 -6
-9 -7 7 -9 -20 -16 -13 -6
-10 -6 6 -10 -21 -17 -14 -7
-10 -5 6 -10 -21 -18 -14 -7
-11 -4 5 -11 -22 -19 -15 -8
-11 -4 5 -11 -22 -19 -15 -8
-10 -4 6 -11 -22 -19 -15 -8
-9 -5 7 -10 -22 -18 -15 -8
-9 -5 7 -10 -22 -18 -15 -8
-8 -6 8 -9 -21 -17 -15 -7
-8 -6 8 -9 -21 -17 -15 -7
-8 -6 8 -9 -21 -17 -15 -7
-8 -6 7 -9 -21 -18 -16 -7
-8 -6 7 -9 -21 -18 -16 -7
-9 -6 6 -10 -21 -19 -17 -8
-9 -5 6 -10 -21 -19 -17 -8
-9 -4 6 -10 -21 -19 -17 -8
-9 -3 6 -10 -21 -19 -17 -9
-9 -2 6 -10 -21 -19 -17 -9
-8 0 7 -11 -21 -19 -17 -10
-8 -2 7 -11 -21 -19 -17 -10
-8 -3 7 -10 -21 -19 -18 -10
-8 -5 7 -9 -20 -18 -19 -10
-8 -6 7 -9 -20 -18 -19 -10
-8 -7 6 -8 -19 -17 -20 -10
-8 -5 6 -8 -19 -17 -20 -10
-7 -4 6 -8 -18 -17 -19 -10
-6 -3 6 -8 -17 -17 -18 -10
-6 0 6 -8 -17 -17 -18 -10
-5 1 7 -7 -16 -16 -17 -10
-5 3 9 -6 -14 -15 -16 -9
-5 5 11 -6 -13 -14 -16 -9
-4 7 13 -5 -11 -13 -15 -8
-4 9 15 -4 -9 -12 -14 -7
-3 11 17 -3 -8 -11 -13 -6
-3 10 17 -2 -8 -10 -13 -6
-3 9 17 0 -8 -9 -12 -6
-3 8 17 2 -7 -8 -11 -6
-3 7 17 3 -7 -7 -11 -6
-2 6 18 4 -6 -6 -10 -5
1 7 16 5 -5 -5 -9 -4
2 8 14 5 -4 -4 -8 -4
4 9 12 6 -2 -3 -7 -3
6 10 11 7 0 -2 -6 -2
7 11 9 8 1 0 -5 0
7 10 8 6 0 0 -6 0
7 10 7 4 -2 0 -6 0
8 9 5 2 -4 0 -7 0
8 8 4 0 -5 0 -8 0
9 7 3 -3 -6 -2 -9 -2
10 8 2 -3 -6 -4 -9 -2
11 8 1 -4 -7 -5 -9 -2
12 9 0 -5 -8 -6 -9 -3
13 10 -2 -5 -8 -8 -9 -3
14 11 -3 -6 -9 -9 -10 -4
13 8 -3 -6 -9 -9 -10 -4
12 6 -3 -6 -9 -9 -10 -4
10 4 -2 -6 -10 -10 -11 -5
9 2 -2 -6 -10 -10 -11 -5
7 0 0 -7 -11 -11 -12 -6
5 0 1 -7 -11 -12 -13 -6
2 0 1 -7 -11 -12 -13 -6
-2 1 2 -8 -12 -13 -14 -7
-5 1 3 -8 -12 -14 -15 -7
-7 2 4 -9 -13 -15 -16 -8
-8 0 5 -10 -14 -15 -17 -9
-9 -3 5 -10 -14 -16 -18 -9
-10 -5 6 -11 -15 -17 -19 -10
-11 -6 7 -12 -16 -17 -20 -11
-12 -8 8 -13 -17 -18 -21 -12
-12 -8 8 -13 -17 -18 -21 -12
-12 -8 8 -13 -17 -18 -21 -12
-12 -8 7 -14 -18 -19 -21 -13
-12 -8 7 -14 -18 -19 -21 -13
-12 -7 6 -15 -19 -20 -22 -14
-12 -9 6 -15 -19 -20 -22 -14
-12 -11 6 -15 -19 -20 -22 -14
-13 -13 7 -15 -19 -21 -22 -15
-13 -14 7 -15 -19 -21 -22 -15
-14 -16 8 -16 -18 -22 -23 -16
-14 -15 8 -16 -18 -22 -23 -16
-14 -14 8 -16 -18 -22 -23 -16
-14 -12 7 -16 -18 -22 -24 -16
-14 -11 7 -16 -18 -22 -24 -16
-15 -10 6 -16 -17 -22 -25 -16
-15 -10 7 -14 -14 -20 -25 -16
-15 -9 8 -12 -12 -18 -25 -16
-14 -8 9 -10 -10 -16 -25 -17
-14 -8 10 -9 -8 -15 -25 -17
-13 -5 14 1 0 -9 -25 -18
-12 1 22 18 15 3 -20 -18
-11 7 30 36 29 14 -15 -18
-9 13 38 54 44 25 -10 -18
-8 18 47 72 59 36 -5 -18
1 30 45 79 71 50 9 -10
21 54 26 69 78 66 36 12
42 76 8 60 87 82 63 33
62 99 -11 50 94 100 91 56
82 121 -30 39 102 116 117 77
97 147 -53 17 107 134 153 107
105 177 -82 -21 110 152 201 150
112 206 -111 -60 112 171 250 193
120 237 -141 -99 115 189 298 235
128 267 -171 -138 117 207 346 278
127 272 -189 -171 97 191 345 288
109 235 -190 -196 39 120 265 246
92 199 -191 -221 -18 50 186 203
74 162 -192 -246 -75 -20 106 160
57 127 -193 -271 -133 -91 27 118
43 97 -187 -279 -166 -135 -26 86
34 78 -166 -256 -159 -135 -38 67
25 59 -147 -232 -152 -135 -50 50
17 40 -127 -208 -145 -135 -62 32
9 21 -107 -185 -138 -135 -73 14
2 8 -89 -162 -127 -130 -80 2
-2 4 -74 -141 -111 -117 -75 -3
-6 -2 -60 -120 -95 -104 -70 -8
-10 -6 -45 -99 -79 -91 -65 -12
-13 -10 -30 -78 -63 -77 -60 -16
-16 -13 -20 -63 -51 -67 -56 -19
-16 -13 -15 -56 -45 -61 -53 -19
-17 -13 -11 -48 -39 -56 -50 -19
-18 -13 -6 -40 -33 -51 -48 -20
-18 -13 0 -33 -27 -46 -45 -20
-19 -12 3 -28 -23 -41 -43 -21
-19 -14 3 -27 -23 -40 -43 -21
-19 -16 3 -26 -23 -39 -41 -22
-19 -18 4 -25 -22 -38 -40 -23
-19 -19 4 -24 -22 -37 -40 -23
-18 -21 5 -23 -21 -36 -39 -24
-18 -21 5 -22 -20 -36 -40 -25
-18 -22 6 -21 -20 -36 -41 -27
-19 -23 7 -20 -19 -36 -43 -28
-19 -23 7 -19 -18 -36 -44 -30
-20 -24 8 -18 -17 -35 -45 -31
-20 -24 8 -18 -17 -35 -45 -31
-20 -24 8 -18 -17 -35 -45 -31
-20 -24 7 -17 -17 -35 -44 -30
-20 -24 7 -17 -17 -35 -44 -30
-21 -23 6 -16 -17 -36 -43 -29
-20 -23 7 -15 -16 -35 -43 -29
-20 -24 8 -15 -15 -34 -41 -29
-19 -25 10 -14 -14 -32 -40 -29
-18 -25 11 -13 -13 -31 -40 -29
-17 -26 12 -12 -12 -30 -39 -29
-17 -26 12 -12 -12 -30 -39 -29
-17 -25 12 -12 -12 -29 -38 -29
-16 -24 11 -12 -12 -28 -37 -29
-16 -24 11 -12 -12 -28 -37 -29
-15 -23 10 -12 -11 -27 -36 -28
-15 -23 10 -12 -11 -27 -36 -28
-15 -23 10 -12 -11 -27 -36 -28
-16 -23 10 -11 -11 -27 -36 -27
-16 -23 10 -11 -11 -27 -36 -27
-17 -23 9 -10 -11 -28 -37 -26
-17 -23 9 -10 -11 -28 -37 -26
-17 -23 9 -10 -11 -28 -37 -26
-17 -22 9 -10 -10 -28 -37 -27
-17 -22 9 -10 -10 -28 -37 -27
-16 -21 8 -9 -9 -27 -37 -28
-16 -21 8 -9 -9 -27 -37 -28
-16 -21 8 -9 -9 -27 -37 -28
-16 -21 8 -8 -9 -27 -37 -28
-16 -21 8 -8 -9 -27 -37 -28
-15 -22 9 -7 -10 -28 -38 -29
-15 -22 9 -6 -8 -27 -37 -29
-15 -22 9 -6 -7 -25 -35 -29
-14 -22 9 -5 -5 -24 -34 -29
-14 -22 9 -4 -4 -22 -32 -29
-13 -22 9 -3 -2 -21 -31 -29
-11 -21 9 -2 1 -19 -29 -29
-9 -20 9 1 3 -17 -28 -28
-7 -19 9 2 5 -15 -26 -27
-6 -18 9 4 7 -14 -25 -27
-4 -17 8 5 9 -12 -23 -26
-4 -17 8 5 10 -11 -22 -25
-4 -18 8 6 11 -9 -22 -25
-5 -19 7 7 12 -8 -21 -24
-5 -19 7 7 13 -6 -20 -23
-6 -20 6 8 14 -5 -19 -22
-5 -19 6 10 16 -3 -17 -21
-4 -18 6 12 17 0 -16 -20
-3 -17 6 13 19 2 -14 -19
-2 -15 6 15 20 4 -13 -18
0 -14 7 17 22 6 -11 -17
2 -13 6 19 24 8 -10 -17
5 -13 5 20 25 11 -9 -17
7 -12 4 22 27 13 -8 -16
9 -11 2 23 28 15 -6 -16
11 -10 1 25 30 17 -5 -15
11 -10 1 26 32 19 -4 -14
12 -10 1 28 33 20 -2 -12
12 -9 1 29 35 22 0 -11
13 -9 1 31 36 23 2 -9
14 -8 0 32 39 26 4 -8
15 -7 -2 35 44 30 8 -7
16 -7 -2 38 47 33 11 -5
17 -6 -3 42 51 37 15 -4
19 -5 -4 45 55 42 19 -2
21 -4 -5 48 58 45 23 0
25 0 -5 50 61 48 26 3
28 3 -6 53 64 51 29 5
32 5 -6 55 67 54 32 7
36 8 -7 57 70 57 35 10
39 10 -8 59 74 61 39 12
40 10 -8 62 77 64 43 15
42 10 -9 64 81 68 47 18
43 10 -9 66 85 71 51 21
44 10 -10 69 89 75 55 24
45 9 -11 71 92 78 58 26
47 13 -12 71 92 79 58 26
48 16 -13 71 93 80 58 27
50 19 -14 71 93 81 59 27
51 22 -16 71 94 82 59 28
53 25 -17 72 95 84 60 29
54 25 -18 72 96 85 61 29
54 25 -18 72 96 86 61 30
55 26 -19 72 97 87 62 30
56 26 -20 72 98 89 63 31
57 27 -21 72 99 90 64 32
58 29 -21 72 99 90 65 33
58 30 -21 72 99 90 66 34
59 32 -22 71 99 90 67 35
60 33 -22 71 99 90 69 36
61 35 -23 70 100 91 70 37
60 34 -23 68 98 89 70 38
59 34 -23 66 96 88 70 40
58 33 -23 65 95 86 70 42
57 32 -23 63 93 85 70 44
56 31 -23 61 91 82 69 45
53 31 -22 59 87 78 66 44
50 31 -21 56 84 75 64 42
47 31 -20 54 80 71 61 40
44 31 -19 52 77 68 58 38
42 32 -18 50 73 64 55 37
40 32 -17 47 70 60 52 36
38 32 -17 45 66 56 48 34
37 31 -16 42 62 52 45 33
35 31 -15 38 58 48 40 31
34 30 -14 36 55 45 37 30
30 27 -11 34 52 40 34 28
27 25 -9 32 49 37 31 26
24 23 -7 31 46 33 28 25
21 20 -4 29 44 30 25 23
18 18 -2 27 40 27 22 21
16 18 -2 25 36 23 18 19
14 18 -2 22 33 20 15 17
13 18 -2 20 29 16 11 15
11 18 -2 18 26 13 8 13
9 18 0 16 23 10 5 11
8 15 0 15 21 7 3 9
6 13 1 15 19 5 0 7
5 10 1 14 18 3 -3 6
4 7 2 13 16 0 -5 4
2 5 3 12 14 -3 -7 2
1 4 4 11 13 -4 -8 1
-2 3 4 11 13 -4 -8 1
-3 2 5 10 12 -5 -9 0
-4 0 6 9 11 -6 -10 -2
-6 -2 7 8 10 -7 -11 -3
-6 -2 7 7 9 -8 -12 -4
-6 -2 7 6 7 -10 -13 -4
-6 -2 7 5 6 -11 -14 -5
-6 -2 7 4 5 -12 -16 -6
-5 -3 6 3 3 -14 -17 -7
-5 -4 6 3 3 -14 -17 -7
-6 -4 6 3 3 -14 -18 -7
-6 -5 6 3 2 -14 -18 -7
-7 -6 6 3 2 -14 -19 -7
-8 -7 6 2 1 -14 -20 -8
-8 -7 6 2 1 -15 -20 -8
-8 -7 6 1 0 -15 -20 -8
-8 -8 7 1 0 -16 -20 -9
-8 -8 7 0 -2 -17 -20 -9
-9 -9 8 -2 -3 -18 -20 -10
-9 -9 8 -2 -3 -18 -20 -10
-9 -9 8 -2 -3 -18 -20 -10
-9 -8 7 -2 -3 -18 -21 -10
-9 -8 7 -2 -3 -18 -21 -10
-10 -7 6 -3 -4 -19 -22 -11
-10 -8 6 -3 -4 -19 -22 -11
-10 -8 6 -3 -4 -19 -22 -11
-10 -9 7 -3 -4 -19 -22 -11
-10 -10 7 -3 -4 -19 -22 -11
-10 -11 8 -2 -4 -18 -22 -10
-10 -11 8 -2 -4 -18 -22 -10
-9 -11 8 0 -4 -18 -22 -10
-8 -10 8 0 -3 -18 -22 -9
-7 -10 8 1 -3 -18 -22 -9
-6 -9 8 2 -2 -19 -22 -8
-6 -9 8 2 -2 -19 -22 -8
-7 -9 8 2 -2 -19 -22 -8
-7 -9 8 2 -3 -19 -22 -9
-8 -9 8 2 -3 -19 -22 -9
-9 -10 8 2 -4 -20 -21 -10
-9 -10 8 2 -4 -20 -21 -10
-9 -9 8 2 -4 -19 -21 -10
-9 -9 8 2 -4 -19 -21 -10
-9 -8 8 2 -4 -18 -21 -10
-9 -7 9 3 -3 -17 -20 -9
-9 -8 9 3 -3 -17 -20 -9
-9 -9 9 3 -3 -17 -20 -9
-9 -10 9 3 -3 -17 -20 -9
-9 -11 9 3 -3 -17 -20 -9
-9 -12 9 4 -3 -17 -20 -10
-9 -10 9 4 -3 -17 -20 -9
-9 -8 9 5 -2 -17 -19 -8
-9 -7 9 6 0 -17 -19 -7
-9 -5 9 7 1 -17 -18 -6
-10 -3 9 8 2 -16 -17 -5
-10 -5 9 8 2 -16 -17 -5
-9 -7 9 8 2 -15 -17 -5
-9 -8 9 8 3 -15 -16 -5
-8 -10 9 8 3 -14 -16 -5
-7 -12 9 9 4 -13 -15 -4
-7 -11 9 9 4 -13 -15 -4
-8 -10 9 9 4 -13 -15 -4
-8 -9 9 9 4 -12 -15 -4
-9 -8 9 9 4 -12 -15 -4
-10 -7 9 8 4 -11 -15 -5
-10 -7 9 8 4 -11 -15 -5
-9 -7 9 8 4 -11 -14 -5
-9 -6 9 8 4 -11 -14 -5
-8 -6 9 8 4 -11 -13 -5
-7 -5 8 9 4 -11 -12 -4
-7 -4 8 9 4 -11 -12 -4
-7 -3 8 9 4 -11 -12 -4
-6 -2 8 8 4 -11 -12 -4
-6 0 8 8 4 -11 -12 -4
-5 1 8 7 3 -11 -13 -4
-5 -2 8 7 3 -11 -13 -4
-6 -5 8 7 3 -11 -13 -4
-7 -7 8 7 3 -10 -12 -3
-8 -10 8 7 3 -10 -12 -3
-9 -12 9 8 4 -9 -11 -2
-9 -11 9 8 4 -9 -11 -2
-9 -9 8 8 4 -9 -11 -2
-9 -7 8 7 3 -9 -11 -2
-9 -6 7 7 3 -9 -11 -2
-8 -4 6 6 2 -10 -11 0
-8 -4 6 6 2 -10 -11 0
-8 -5 7 6 2 -10 -11 0
-8 -6 7 5 2 -10 -11 0
-8 -7 8 5 2 -10 -11 0
-7 -8 9 4 1 -11 -10 1
-7 -8 9 4 1 -11 -10 1
-7 -7 9 4 1 -11 -10 2
-7 -7 9 5 0 -11 -10 2
-7 -6 9 5 0 -11 -10 3
-7 -5 10 6 -2 -12 -9 4
-7 -5 9 5 -2 -12 -9 4
-6 -5 8 4 -3 -12 -10 4
-6 -6 7 3 -3 -13 -11 4
-5 -6 6 2 -4 -13 -12 4
-4 -7 5 1 -5 -14 -13 4
-4 -7 5 1 -5 -14 -13 4
-5 -8 5 1 -5 -15 -13 4
-5 -9 5 1 -6 -15 -13 3
-6 -10 5 1 -6 -16 -13 3
-7 -11 6 0 -7 -17 -14 2
-7 -10 6 0 -7 -17 -14 2
-7 -9 6 0 -7 -17 -14 3
-7 -8 6 0 -7 -17 -14 3
-7 -7 6 0 -7 -17 -14 4
-7 -6 6 0 -7 -17 -13 5
-7 -6 6 0 -7 -17 -13 5
-7 -6 6 0 -7 -17 -13 5
-8 -7 6 0 -8 -17 -14 4
-8 -7 6 0 -8 -17 -14 4
-9 -8 5 -2 -9 -18 -15 3
-9 -9 5 -2 -9 -18 -15 3
-9 -10 5 -2 -9 -18 -15 3
-10 -11 5 -2 -9 -18 -15 3
-10 -13 5 -2 -9 -18 -15 3
-11 -14 6 -3 -9 -17 -14 3
-11 -12 6 -3 -9 -17 -14 2
-10 -10 6 -3 -9 -17 -15 1
-10 -8 5 -3 -9 -17 -16 0
-9 -5 5 -3 -9 -17 -17 -2
-8 -3 4 -4 -10 -18 -18 -3
-8 -5 4 -4 -10 -18 -18 -3
-8 -6 4 -4 -10 -18 -18 -3
-9 -8 5 -4 -10 -18 -17 -3
-9 -10 5 -4 -10 -18 -17 -3
-10 -12 6 -3 -10 -18 -16 -2
-10 -10 6 -3 -10 -18 -16 -2
-10 -8 5 -3 -10 -18 -16 -2
-9 -6 5 -4 -10 -18 -16 -2
-9 -3 4 -4 -10 -18 -16 -2
-8 0 3 -5 -11 -19 -16 0
-8 0 3 -5 -11 -19 -16 0
-8 -2 4 -4 -11 -19 -16 -2
-8 -2 4 -4 -11 -18 -16 -3
-8 -3 5 -3 -11 -18 -16 -4
-9 -4 6 -2 -10 -17 -16 -5
-9 -4 6 -2 -10 -17 -16 -5
-8 -4 6 -2 -10 -17 -15 -5
-7 -3 6 -2 -10 -17 -15 -4
-6 -3 6 -2 -10 -17 -14 -4
-5 -2 6 -2 -9 -16 -13 -3
-4 3 6 0 -8 -16 -13 -3
-3 7 6 1 -7 -15 -12 -3
-2 10 6 2 -6 -14 -12 -3
0 14 6 3 -5 -13 -11 -3
1 18 7 4 -4 -12 -10 -2
1 17 7 4 -4 -12 -10 -2
1 16 7 4 -4 -11 -10 -2
1 15 7 5 -3 -10 -10 -2
1 14 7 5 -3 -9 -10 -2
0 12 7 6 -2 -8 -9 -3
2 13 6 6 -2 -8 -8 -3
3 15 5 6 0 -7 -7 -2
5 17 4 6 0 -7 -6 -2
7 18 3 6 1 -6 -5 0
9 20 1 7 2 -5 -4 1
9 18 -2 6 1 -5 -4 1
10 16 -3 4 0 -6 -4 1
11 14 -5 2 -2 -7 -4 1
12 11 -7 1 -3 -8 -4 1
13 9 -9 -2 -4 -9 -4 0
13 7 -9 -2 -4 -9 -4 0
12 6 -8 -2 -4 -9 -4 0
11 4 -7 -2 -3 -9 -4 1
10 2 -6 -2 -3 -9 -4 1
9 0 -5 0 -2 -8 -3 2
8 0 -5 -2 -3 -9 -4 2
7 1 -5 -3 -4 -10 -5 1
6 2 -5 -4 -5 -11 -6 0
5 3 -5 -5 -6 -12 -7 -2
4 4 -5 -6 -8 -13 -8 -3
2 3 -5 -6 -9 -14 -9 -4
-2 2 -4 -7 -10 -15 -10 -5
-4 1 -3 -7 -11 -16 -11 -6
-6 0 -2 -8 -12 -17 -12 -7
-9 -2 0 -9 -14 -18 -14 -9
-10 -3 0 -9 -14 -18 -14 -9
-11 -4 1 -9 -14 -19 -15 -10
-12 -6 2 -10 -15 -19 -16 -11
-13 -7 3 -10 -15 -20 -17 -12
-14 -9 4 -11 -16 -21 -18 -13
-14 -10 4 -11 -16 -21 -18 -13
-14 -11 4 -11 -16 -21 -18 -13
-14 -12 4 -10 -16 -21 -18 -13
-14 -13 4 -10 -16 -21 -18 -13
-14 -14 5 -9 -17 -22 -18 -14
-14 -14 5 -9 -17 -22 -18 -14
-14 -14 5 -10 -17 -22 -18 -14
-15 -14 4 -10 -17 -22 -18 -14
-15 -14 4 -11 -17 -22 -18 -14
-16 -13 3 -12 -18 -23 -19 -14
-16 -15 3 -12 -18 -23 -19 -14
-16 -16 4 -12 -17 -22 -18 -13
-16 -18 5 -11 -17 -22 -18 -12
-16 -20 6 -11 -16 -21 -17 -11
-16 -22 7 -10 -15 -20 -16 -10
-16 -18 9 -3 -9 -15 -15 -10
-17 -13 12 4 -4 -10 -14 -10
-17 -9 15 10 3 -5 -12 -10
-18 -4 17 17 9 1 -11 -10
-19 1 20 25 15 7 -8 -11
-11 8 26 45 33 24 4 -8
-3 16 33 64 52 42 15 -4
5 23 39 85 70 59 26 1
13 30 46 104 89 76 37 4
21 42 49 118 106 95 52 12
38 81 12 75 109 115 97 53
55 121 -24 33 111 136 142 94
71 161 -60 -10 114 157 188 135
89 200 -97 -53 117 178 233 176
104 237 -131 -94 119 196 274 214
103 235 -149 -115 105 185 273 223
102 233 -166 -138 91 174 272 232
101 231 -184 -159 76 162 270 240
100 228 -202 -182 62 151 269 250
98 223 -218 -203 45 135 261 254
80 185 -204 -215 -8 69 189 210
64 147 -191 -226 -60 3 118 165
47 110 -178 -237 -112 -63 47 121
30 72 -164 -248 -164 -130 -24 77
14 36 -151 -257 -211 -189 -90 37
8 24 -132 -227 -188 -171 -85 27
3 12 -112 -196 -165 -152 -79 17
-4 0 -93 -166 -144 -134 -75 8
-9 -13 -74 -137 -121 -116 -70 -3
-15 -24 -56 -108 -99 -99 -65 -12
-15 -24 -45 -93 -88 -88 -59 -12
-16 -24 -34 -78 -75 -76 -54 -12
-17 -24 -24 -63 -63 -66 -48 -12
-18 -24 -14 -48 -51 -55 -43 -12
-19 -25 -4 -33 -39 -45 -36 -13
-19 -26 -2 -30 -37 -43 -35 -13
-19 -28 1 -28 -34 -39 -34 -13
-19 -30 3 -25 -32 -37 -33 -14
-19 -32 5 -22 -30 -35 -32 -14
-20 -34 7 -19 -27 -32 -30 -15
-20 -34 8 -18 -27 -32 -30 -16
-20 -34 9 -17 -27 -32 -30 -18
-21 -35 10 -15 -27 -31 -31 -19
-21 -35 11 -14 -27 -31 -31 -21
-22 -36 12 -12 -27 -30 -32 -23
-22 -36 12 -12 -26 -29 -32 -23
-22 -37 12 -11 -25 -28 -32 -23
-22 -37 12 -11 -24 -27 -32 -22
-22 -38 12 -10 -23 -26 -32 -22
-23 -39 12 -9 -21 -24 -31 -21
-23 -39 13 -9 -21 -24 -31 -21
-23 -39 14 -8 -21 -23 -31 -21
-22 -40 15 -8 -21 -23 -31 -21
-22 -40 16 -7 -21 -22 -31 -21
-21 -41 17 -6 -21 -21 -30 -22
-21 -41 17 -6 -21 -21 -30 -22
-21 -41 17 -6 -21 -21 -30 -23
-21 -41 17 -6 -20 -21 -30 -23
-21 -41 17 -6 -20 -21 -30 -24
-20 -43 16 -6 -19 -20 -29 -25
-20 -43 16 -6 -19 -20 -29 -25
-20 -43 16 -5 -19 -19 -29 -24
-20 -43 17 -5 -19 -19 -29 -23
-20 -43 17 -4 -19 -18 -29 -22
-20 -44 18 -3 -19 -17 -28 -21
-20 -44 18 -3 -19 -17 -28 -21
-20 -44 18 -3 -19 -17 -28 -21
-20 -44 17 -3 -19 -17 -28 -21
-20 -44 17 -3 -19 -17 -28 -21
-21 -43 16 -4 -18 -18 -27 -21
-20 -43 16 -3 -18 -18 -27 -21
-19 -41 16 -2 -18 -18 -26 -21
-17 -41 16 0 -17 -17 -26 -21
-16 -40 16 1 -17 -17 -25 -21
-14 -39 17 2 -16 -16 -24 -22
-14 -39 17 2 -15 -15 -24 -22
-14 -40 17 2 -14 -14 -24 -22
-14 -41 17 3 -13 -13 -24 -22
-14 -43 17 3 -12 -12 -24 -22
-13 -44 17 4 -10 -11 -23 -22
-13 -44 17 5 -9 -10 -21 -22
-13 -44 17 6 -8 -8 -19 -21
-13 -44 17 7 -6 -7 -17 -21
-13 -44 17 8 -5 -5 -15 -20
-13 -43 17 10 -3 -3 -13 -19
-12 -43 17 11 -2 -2 -12 -19
-11 -43 17 12 0 0 -10 -18
-10 -43 17 13 1 2 -9 -18
-9 -43 17 14 2 3 -7 -17
-8 -43 17 15 4 5 -5 -16
-8 -43 17 16 5 6 -5 -16
-7 -43 17 17 6 8 -5 -16
-7 -41 17 19 8 10 -4 -16
-6 -41 17 20 9 12 -4 -16
-5 -40 16 22 11 14 -3 -16
-4 -40 16 24 13 16 0 -15
-3 -40 16 26 15 19 2 -14
-2 -40 16 28 17 22 4 -13
0 -40 16 30 19 25 6 -12
2 -39 16 32 22 28 9 -10
2 -39 16 34 24 30 11 -10
3 -39 15 36 26 32 13 -9
3 -39 15 38 28 35 15 -9
4 -39 14 40 30 37 17 -8
5 -38 13 44 33 40 19 -7
7 -38 13 46 35 44 22 -6
9 -37 13 48 38 47 25 -5
11 -37 13 51 42 50 28 -3
13 -36 13 53 45 53 31 -2
15 -35 13 56 48 57 34 1
17 -32 13 56 51 60 36 2
19 -28 12 56 54 63 39 4
21 -25 11 57 57 66 42 5
23 -21 10 57 60 69 45 7
26 -17 9 58 63 72 48 9
28 -17 9 61 66 75 52 11
31 -17 8 64 70 79 56 14
34 -17 7 67 73 84 60 16
37 -17 6 70 77 88 64 19
40 -18 5 73 81 92 69 22
42 -17 5 75 84 94 72 24
43 -15 5 77 87 97 75 26
44 -14 4 79 90 100 78 28
45 -12 4 81 93 103 81 30
47 -10 3 84 96 106 85 32
47 -9 2 84 97 107 87 33
48 -8 0 84 99 109 89 34
49 -7 -2 84 100 111 91 35
50 -6 -4 84 102 113 93 36
51 -5 -6 82 104 115 95 38
52 -4 -6 82 104 115 95 39
53 -2 -6 82 104 115 96 40
54 1 -6 82 104 115 97 42
55 3 -6 82 104 115 98 43
56 5 -5 82 103 116 99 44
56 8 -6 80 102 115 99 44
56 11 -7 78 101 114 98 44
56 14 -9 75 99 113 97 44
56 17 -10 73 98 112 96 44
55 20 -12 70 96 110 95 44
53 18 -12 69 94 108 94 44
52 17 -11 68 91 105 93 44
50 15 -10 67 88 102 91 44
48 13 -9 66 85 99 90 44
46 11 -9 65 82 97 89 44
43 10 -8 61 78 92 85 44
40 10 -7 57 74 88 80 42
37 10 -6 53 70 84 76 39
35 10 -5 49 66 79 72 37
33 10 -4 46 62 75 68 35
31 10 -3 43 57 70 63 32
29 11 -2 39 52 65 58 29
27 12 0 36 48 60 54 26
25 13 1 33 43 55 49 23
23 13 1 31 38 50 45 21
19 12 2 28 35 46 40 19
15 9 3 26 32 43 37 18
12 6 4 24 29 39 34 16
8 3 5 22 26 36 31 15
5 0 6 20 23 33 28 14
4 -3 8 19 20 30 26 12
4 -4 9 18 18 27 24 11
4 -6 11 18 15 24 22 9
4 -7 12 17 13 21 20 8
4 -8 13 17 11 19 19 7
4 -9 14 14 8 16 16 5
3 -9 14 12 6 13 13 3
1 -9 14 9 4 11 10 1
0 -9 14 7 2 8 7 -2
-2 -9 14 5 0 6 4 -4
-3 -10 13 4 -2 4 2 -6
-4 -11 13 4 -3 3 1 -7
-4 -12 13 3 -4 2 0 -8
-5 -13 13 3 -5 1 -2 -9
-5 -13 13 3 -5 0 -3 -10
-6 -14 14 1 -7 -2 -4 -11
-5 -14 13 0 -8 -3 -5 -12
-4 -14 13 -3 -10 -3 -5 -12
-3 -14 12 -4 -11 -4 -6 -13
-3 -14 12 -5 -12 -4 -6 -13
-2 -16 11 -6 -13 -5 -7 -14
-2 -17 11 -6 -13 -5 -7 -14
-2 -18 12 -5 -13 -5 -7 -13
-2 -19 12 -5 -13 -5 -7 -13
-2 -20 12 -5 -13 -5 -7 -13
0 -21 13 -4 -12 -5 -6 -12
-2 -21 13 -5 -13 -5 -6 -12
-2 -20 12 -6 -13 -6 -6 -12
-3 -20 12 -7 -14 -6 -6 -12
-3 -20 12 -7 -14 -6 -6 -12
-4 -20 11 -8 -15 -7 -7 -11
-5 -22 11 -8 -15 -7 -7 -11
-6 -24 11 -7 -15 -8 -7 -11
-7 -26 11 -7 -15 -8 -7 -11
-7 -27 11 -7 -15 -8 -7 -11
-8 -28 12 -6 -15 -9 -8 -10
-8 -27 12 -6 -15 -9 -8 -9
-7 -26 12 -6 -15 -8 -8 -9
-7 -25 12 -6 -15 -8 -8 -8
-7 -25 12 -6 -15 -8 -8 -8
-6 -25 11 -6 -15 -7 -7 -7
-6 -27 12 -5 -15 -7 -7 -7
-6 -28 13 -5 -15 -7 -7 -7
-6 -30 14 -4 -15 -7 -7 -7
-6 -31 14 -4 -15 -7 -7 -7
-5 -32 15 -3 -14 -8 -8 -7
-6 -31 16 -2 -13 -7 -7 -7
-6 -31 17 0 -12 -6 -7 -6
-7 -30 18 1 -11 -5 -6 -6
-7 -30 18 1 -11 -5 -6 -6
-8 -29 19 2 -10 -4 -5 -5
-8 -29 19 2 -10 -4 -5 -5
-8 -30 18 2 -10 -5 -5 -5
-8 -30 18 2 -10 -5 -5 -5
-8 -30 18 2 -10 -5 -5 -5
-7 -31 17 2 -11 -6 -6 -5
-7 -30 17 2 -11 -6 -6 -5
-7 -30 16 2 -11 -6 -6 -5
-7 -29 16 2 -11 -6 -6 -5
-7 -29 16 2 -11 -6 -6 -5
-8 -28 15 1 -11 -7 -5 -6
-8 -28 15 2 -10 -6 -5 -6
-9 -28 16 2 -10 -6 -6 -6
-9 -28 16 3 -9 -5 -6 -6
-9 -28 16 3 -9 -5 -6 -6
-10 -26 17 4 -8 -4 -7 -6
-10 -24 17 4 -8 -4 -7 -6
-9 -23 17 4 -8 -4 -7 -6
-9 -21 17 4 -8 -4 -7 -6
-9 -20 17 4 -8 -4 -7 -6
-8 -19 16 5 -8 -3 -7 -7
-9 -20 17 6 -7 -2 -7 -7
-9 -20 17 7 -6 0 -6 -7
-10 -21 18 8 -5 1 -6 -7
-10 -21 18 9 -5 1 -6 -7
-11 -22 19 10 -4 2 -5 -6
-11 -21 18 9 -4 2 -5 -6
-11 -20 18 9 -5 2 -5 -7
-11 -19 17 8 -5 2 -5 -7
-11 -19 17 8 -5 2 -5 -7
-10 -17 16 7 -6 1 -6 -8
-10 -16 16 7 -6 1 -6 -8
-10 -14 16 7 -6 1 -6 -9
-10 -13 16 7 -6 1 -6 -9
-10 -12 16 7 -6 1 -6 -9
-9 -11 15 7 -7 1 -5 -10
-10 -12 14 6 -7 1 -5 -10
-10 -13 14 5 -8 0 -6 -10
-11 -14 13 4 -8 0 -6 -10
-11 -15 13 4 -8 0 -6 -10
-12 -16 12 3 -9 -2 -7 -10
-11 -16 12 3 -9 -2 -7 -10
-10 -15 12 3 -9 -3 -7 -10
-9 -15 12 3 -9 -3 -7 -10
-9 -15 12 3 -9 -3 -7 -10
-8 -14 13 4 -9 -4 -6 -10
-9 -14 13 3 -10 -4 -7 -10
-10 -14 12 2 -11 -5 -8 -10
-11 -14 12 1 -12 -5 -9 -10
-11 -14 12 0 -12 -5 -9 -10
-12 -13 11 -2 -13 -6 -10 -11
-12 -12 11 -2 -13 -7 -10 -11
-11 -11 11 -2 -14 -8 -11 -11
-11 -10 11 -2 -14 -9 -11 -11
-11 -9 11 -2 -14 -9 -11 -11
-10 -8 11 -2 -15 -10 -12 -12
-10 -9 11 -2 -15 -10 -12 -12
-11 -10 11 -3 -15 -10 -12 -12
-11 -11 11 -3 -15 -10 -12 -12
-11 -12 11 -3 -15 -10 -12 -12
-12 -13 10 -4 -15 -9 -12 -11
-12 -13 10 -3 -15 -9 -11 -10
-12 -14 11 -3 -14 -9 -11 -9
-12 -14 11 -2 -14 -9 -10 -8
-12 -14 11 -2 -14 -9 -10 -7
-11 -14 12 0 -13 -8 -10 -6
-11 -13 11 -2 -14 -9 -11 -7
-11 -12 10 -3 -14 -10 -12 -8
-11 -11 9 -4 -15 -11 -13 -9
-11 -10 8 -5 -15 -11 -14 -10
-11 -9 7 -6 -16 -12 -15 -11
-11 -9 7 -6 -16 -12 -15 -11
-12 -10 7 -6 -16 -12 -15 -10
-12 -10 7 -6 -16 -12 -15 -10
-12 -10 7 -6 -16 -12 -15 -10
-13 -11 8 -6 -17 -12 -14 -9
-13 -12 8 -6 -17 -12 -14 -9
-14 -13 8 -6 -17 -12 -14 -9
-14 -14 8 -6 -17 -12 -14 -9
-14 -14 8 -6 -17 -12 -14 -9
-15 -14 9 -7 -17 -11 -14 -8
-15 -12 8 -7 -17 -11 -15 -8
-14 -10 7 -7 -17 -11 -15 -9
-14 -9 6 -7 -17 -11 -16 -9
-14 -7 6 -7 -17 -11 -16 -9
-13 -7 5 -7 -18 -12 -17 -10
-13 -8 5 -7 -18 -12 -17 -10
-13 -10 5 -7 -18 -12 -17 -10
-13 -11 5 -7 -18 -12 -17 -10
-13 -12 5 -7 -18 -12 -17 -10
-14 -13 5 -8 -19 -13 -17 -11
-14 -12 6 -8 -19 -13 -17 -11
-14 -12 6 -8 -19 -13 -17 -10
-14 -11 7 -8 -19 -13 -17 -10
-14 -11 7 -8 -19 -13 -17 -10
-15 -10 8 -7 -19 -13 -17 -9
-16 -10 8 -7 -19 -13 -17 -10
-17 -11 8 -7 -20 -14 -18 -11
-18 -11 8 -7 -20 -14 -18 -12
-19 -11 8 -7 -20 -14 -18 -12
-19 -11 9 -7 -21 -15 -19 -13
-18 -10 9 -7 -20 -15 -19 -13
-17 -9 8 -7 -20 -15 -19 -13
-16 -8 8 -7 -19 -15 -19 -13
-15 -7 8 -7 -19 -15 -19 -13
-14 -5 7 -6 -18 -14 -20 -14
-14 -2 7 -5 -18 -13 -20 -14
-14 1 7 -5 -17 -13 -19 -15
-14 3 7 -4 -17 -12 -19 -15
-14 5 7 -4 -17 -12 -19 -15
-14 8 8 -3 -15 -11 -18 -16
-13 10 8 -3 -14 -11 -18 -16
-12 13 8 -2 -13 -11 -18 -16
-11 16 8 -2 -11 -11 -18 -16
-11 18 8 -2 -10 -11 -18 -16
-10 19 9 0 -9 -10 -18 -17
-9 19 9 0 -9 -10 -18 -17
-8 18 9 1 -9 -10 -18 -17
-7 18 9 1 -9 -10 -18 -17
-6 18 9 1 -9 -10 -18 -17
-5 18 8 2 -8 -10 -16 -15
-4 19 8 3 -6 -9 -14 -14
-3 20 7 4 -4 -8 -12 -13
-2 21 7 5 -3 -7 -11 -11
0 22 7 6 0 -7 -9 -10
1 23 4 5 0 -7 -8 -9
1 22 2 3 -2 -8 -9 -9
2 21 -2 0 -4 -9 -10 -10
2 20 -4 -3 -6 -10 -11 -10
2 19 -7 -6 -7 -11 -11 -10
3 18 -8 -7 -8 -12 -12 -11
3 17 -7 -6 -8 -12 -12 -10
4 16 -7 -6 -8 -12 -12 -9
4 15 -6 -5 -8 -12 -12 -8
4 15 -6 -5 -8 -12 -12 -8
5 13 -5 -4 -8 -12 -11 -7
5 11 -5 -4 -8 -12 -11 -7
5 9 -5 -4 -8 -12 -11 -7
5 7 -5 -4 -8 -12 -11 -7
5 5 -5 -4 -8 -12 -11 -7
2 3 -3 -4 -7 -12 -12 -7
-2 2 -2 -4 -8 -13 -14 -7
-6 1 1 -4 -9 -15 -15 -7
-9 -2 3 -4 -10 -17 -16 -7
-12 -3 4 -4 -10 -18 -17 -7
-14 -5 5 -5 -11 -19 -18 -9
-15 -7 5 -6 -11 -20 -20 -10
-16 -9 5 -7 -12 -21 -21 -12
-18 -10 5 -8 -12 -22 -22 -14
-19 -12 5 -8 -12 -22 -23 -15
-20 -13 5 -9 -13 -23 -24 -16
-20 -13 5 -9 -13 -23 -24 -16
-20 -13 5 -9 -13 -23 -24 -16
-20 -13 5 -9 -13 -23 -24 -16
-20 -13 5 -9 -13 -23 -24 -16
-19 -12 5 -8 -14 -23 -24 -16
-19 -13 5 -8 -14 -23 -24 -16
-19 -14 5 -9 -14 -23 -24 -16
-19 -15 5 -9 -14 -23 -24 -16
-19 -16 5 -9 -14 -23 -24 -16
-19 -17 5 -10 -13 -24 -25 -16
-19 -16 4 -10 -14 -25 -25 -16
-19 -16 4 -10 -15 -25 -26 -17
-19 -15 3 -10 -16 -26 -26 -17
-19 -15 3 -10 -16 -26 -26 -17
-20 -13 3 -9 -15 -25 -26 -18
-20 -11 4 -6 -11 -22 -25 -18
-20 -9 5 -3 -7 -19 -23 -17
-20 -7 7 2 -4 -16 -21 -17
-20 -5 8 5 1 -13 -20 -17
-17 1 17 21 15 0 -13 -16
-14 7 28 42 32 15 -6 -15
-10 13 38 62 50 29 3 -14
-6 19 50 81 67 44 10 -13
-2 24 60 102 85 59 18 -13
16 51 39 81 91 75 48 13
36 82 9 50 94 93 82 44
57 114 -22 18 97 110 117 75
77 146 -53 -14 101 128 152 106
98 177 -83 -46 104 145 187 137
105 192 -110 -72 104 154 213 163
107 202 -135 -97 102 160 236 189
110 213 -160 -121 100 167 260 214
112 223 -186 -146 99 174 283 239
115 233 -212 -171 97 180 307 265
102 209 -214 -191 47 123 252 236
85 174 -207 -211 -15 50 175 194
66 138 -201 -231 -77 -25 98 151
49 103 -195 -251 -139 -99 22 109
30 68 -189 -270 -201 -174 -55 66
21 49 -169 -252 -198 -178 -71 49
14 33 -145 -222 -177 -162 -71 38
8 18 -121 -192 -155 -147 -70 27
1 3 -98 -162 -134 -132 -70 17
-7 -12 -73 -133 -112 -116 -70 7
-10 -18 -60 -112 -97 -103 -64 3
-12 -22 -48 -95 -82 -91 -58 1
-14 -26 -36 -77 -69 -78 -52 -2
-15 -30 -24 -60 -55 -66 -45 -3
-17 -34 -13 -43 -40 -54 -38 -5
-18 -35 -9 -36 -35 -50 -36 -6
-19 -36 -7 -32 -33 -48 -35 -7
-19 -36 -4 -28 -30 -45 -34 -8
-20 -37 -2 -25 -28 -43 -33 -9
-20 -37 1 -21 -25 -40 -32 -9
-21 -41 3 -18 -23 -38 -31 -10
-22 -46 6 -16 -21 -37 -30 -10
-23 -50 8 -13 -19 -36 -29 -10
-24 -54 11 -11 -18 -34 -28 -10
-24 -59 13 -8 -16 -33 -28 -10
-25 -60 14 -7 -15 -32 -27 -11
-25 -60 14 -7 -15 -30 -27 -11
-25 -60 14 -6 -15 -29 -27 -10
-25 -60 14 -6 -15 -28 -27 -10
-25 -60 14 -6 -15 -27 -27 -10
-26 -62 15 -5 -15 -26 -27 -9
-26 -64 16 -3 -13 -25 -26 -9
-26 -65 16 -2 -12 -24 -25 -8
-26 -67 17 0 -11 -23 -24 -8
-26 -69 17 1 -10 -23 -23 -8
-27 -70 18 2 -9 -22 -22 -7
-27 -71 20 3 -9 -21 -21 -6
-27 -72 21 4 -8 -20 -20 -5
-27 -73 22 5 -8 -19 -19 -4
-27 -74 23 6 -8 -19 -19 -4
-26 -75 24 7 -7 -18 -18 -3
-25 -75 24 8 -6 -17 -17 -2
-25 -76 24 9 -5 -16 -16 0
-24 -76 24 10 -4 -15 -15 1
-24 -76 24 11 -4 -15 -15 2
-23 -78 25 12 -3 -14 -14 3
-23 -80 25 12 -3 -14 -14 3
-23 -82 26 12 -3 -14 -13 3
-23 -85 26 12 -3 -14 -13 3
-23 -87 26 12 -3 -14 -13 3
-24 -89 27 14 0 -12 -11 3
-23 -90 29 16 2 -10 -9 4
-23 -91 30 18 4 -8 -8 5
-22 -93 31 20 6 -6 -6 6
-22 -94 32 22 8 -4 -4 7
-21 -96 33 23 9 -3 -3 8
-21 -97 33 23 10 -3 -3 8
-21 -98 33 24 10 -3 -2 9
-21 -100 33 24 11 -3 -2 9
-21 -101 33 24 11 -3 -2 9
-22 -102 33 25 12 -2 0 10
-21 -102 33 25 13 -2 0 10
-21 -102 33 26 13 0 0 10
-20 -102 33 26 14 0 0 10
-20 -102 33 26 14 0 0 10
-19 -101 33 27 16 2 0 9
-19 -100 33 29 17 4 1 9
-18 -99 32 30 18 5 2 8
-18 -98 32 31 20 7 3 8
-18 -97 32 32 21 9 4 8
-17 -96 31 34 23 11 6 7
-16 -96 31 36 25 14 7 8
-16 -96 31 38 27 16 9 9
-15 -96 31 40 29 18 10 9
-15 -96 31 43 31 21 12 10
-14 -96 31 45 33 23 14 11
-13 -97 31 46 34 25 15 12
-12 -98 31 47 36 27 16 12
-12 -98 31 49 37 29 18 13
-11 -99 31 50 39 31 19 13
-10 -99 32 52 40 33 20 14
-9 -98 31 53 42 34 21 14
-8 -96 30 54 43 35 21 14
-7 -95 30 56 43 37 22 14
-6 -93 29 57 44 38 22 14
-3 -91 28 59 47 42 25 15
1 -89 28 62 50 45 27 16
5 -88 28 64 53 48 30 16
8 -86 28 66 56 51 33 17
12 -83 28 69 60 54 36 17
13 -81 27 71 63 56 38 19
14 -80 26 73 65 59 42 20
15 -79 24 75 68 62 44 21
15 -77 23 78 71 64 46 23
16 -76 21 80 74 67 49 24
19 -74 20 82 76 70 52 26
21 -72 19 84 79 73 55 27
24 -71 19 85 81 76 58 29
27 -69 18 87 84 79 61 30
30 -67 18 88 87 82 64 32
32 -65 17 90 90 85 67 34
35 -62 16 92 92 88 70 36
37 -60 15 94 95 91 73 37
39 -58 15 97 98 93 76 39
43 -55 14 99 101 96 80 42
44 -52 12 100 102 97 81 43
44 -48 11 98 102 97 81 44
44 -44 9 97 102 97 82 44
44 -39 8 95 102 97 82 45
44 -35 6 94 102 97 82 45
46 -33 5 93 102 99 85 47
48 -33 4 94 103 100 88 49
50 -33 3 95 104 102 90 51
53 -33 3 96 105 103 92 54
55 -33 2 97 106 105 95 56
56 -32 1 97 106 106 96 57
56 -30 0 95 105 105 96 57
55 -29 -2 93 103 104 95 57
55 -28 -3 90 102 103 95 57
55 -27 -4 88 100 102 95 57
54 -25 -5 86 98 100 93 58
53 -23 -5 84 96 98 91 58
53 -21 -6 81 94 96 90 58
52 -18 -6 79 91 93 88 58
52 -16 -6 77 89 91 86 58
49 -15 -7 75 86 88 84 57
46 -15 -6 72 82 85 80 55
43 -15 -5 70 79 81 77 54
39 -15 -4 68 76 78 75 53
36 -15 -3 65 73 74 72 52
34 -14 0 63 71 71 69 51
31 -14 2 61 68 67 66 49
29 -14 4 60 65 64 63 48
27 -14 7 58 62 60 60 46
24 -14 9 56 59 57 56 45
21 -16 10 54 56 53 53 43
18 -18 10 51 52 49 49 39
14 -20 11 49 49 45 45 37
11 -23 11 46 45 40 40 34
8 -25 11 43 42 37 36 31
6 -26 12 40 38 33 32 29
6 -26 13 39 35 30 29 27
5 -27 14 37 33 27 26 25
5 -27 14 36 30 24 23 22
5 -27 15 34 27 21 20 20
3 -29 16 33 25 19 17 18
0 -30 17 31 23 17 15 16
-4 -32 18 30 22 16 13 15
-7 -33 19 29 20 14 11 13
-10 -35 20 28 18 12 9 11
-11 -35 21 26 16 10 7 9
-11 -33 20 24 13 7 4 6
-12 -32 19 22 11 5 1 4
-12 -30 18 19 8 2 -3 2
-12 -28 17 17 5 -2 -6 -2
-13 -27 16 16 4 -3 -7 -3
-14 -27 16 15 4 -4 -8 -4
-14 -26 16 15 3 -4 -8 -4
-15 -26 16 14 3 -5 -9 -5
-15 -26 16 14 3 -5 -9 -5
-16 -25 15 13 2 -6 -10 -6
-16 -24 15 12 1 -7 -11 -7
-17 -23 15 12 0 -7 -12 -8
-17 -22 15 11 0 -8 -12 -9
-17 -21 15 11 -2 -8 -13 -10
-18 -20 14 9 -4 -9 -15 -12
-18 -18 13 8 -5 -11 -16 -13
-18 -17 12 6 -7 -12 -18 -15
-18 -15 12 4 -8 -14 -19 -17
-18 -14 11 2 -10 -15 -21 -19
-19 -12 10 1 -11 -16 -22 -20
-19 -9 10 1 -11 -16 -22 -20
-19 -6 10 1 -12 -17 -23 -20
-19 -3 10 1 -12 -17 -23 -20
-19 1 10 1 -12 -17 -23 -20
-18 2 9 1 -13 -18 -24 -21
-18 0 9 1 -13 -18 -24 -21
-19 -2 8 0 -14 -19 -25 -22
-19 -4 8 -2 -14 -20 -25 -22
-19 -5 8 -2 -14 -20 -25 -22
-20 -6 7 -3 -15 -21 -26 -23
-20 -6 7 -2 -15 -21 -26 -23
-20 -5 8 0 -15 -20 -25 -23
-20 -4 8 0 -15 -20 -25 -23
-20 -4 8 1 -15 -20 -25 -23
-20 -3 9 2 -15 -19 -24 -22
-20 -3 9 2 -15 -19 -24 -22
-20 -3 9 2 -15 -19 -24 -22
-20 -3 9 2 -15 -19 -24 -22
-20 -3 9 2 -15 -19 -24 -22
-21 -4 10 2 -14 -19 -25 -22
-21 -4 10 2 -14 -19 -25 -22
-21 -4 10 2 -13 -18 -24 -22
-21 -4 10 2 -12 -18 -24 -22
-21 -4 10 2 -12 -18 -24 -22
-20 -4 9 3 -11 -17 -23 -21
-20 -4 10 4 -11 -17 -23 -21
-21 -4 11 5 -11 -17 -23 -20
-21 -4 11 5 -11 -17 -23 -20
-21 -4 12 6 -11 -17 -23 -20
-22 -5 13 7 -10 -17 -22 -19
-22 -5 13 7 -10 -17 -22 -19
-21 -5 12 7 -9 -16 -22 -19
-21 -5 12 7 -9 -16 -22 -19
-21 -5 12 7 -9 -16 -22 -19
-20 -6 11 6 -8 -15 -22 -20
-20 -6 11 6 -8 -15 -22 -20
-20 -7 11 6 -8 -15 -22 -20
-20 -7 11 6 -8 -15 -22 -20
-20 -7 11 6 -8 -15 -22 -20
-20 -8 11 7 -8 -14 -21 -21
-20 -8 11 7 -8 -14 -21 -21
-20 -7 11 8 -7 -13 -20 -20
-20 -6 11 9 -7 -13 -20 -20
-20 -6 11 9 -7 -13 -20 -20
-20 -5 12 10 -6 -12 -19 -19
-20 -5 12 10 -6 -12 -19 -19
-20 -5 12 10 -7 -12 -20 -19
-20 -5 12 10 -7 -12 -21 -19
-20 -5 12 10 -7 -12 -21 -19
-20 -6 11 9 -8 -12 -22 -20
-20 -6 11 9 -8 -12 -22 -20
-21 -7 11 9 -8 -12 -21 -20
-21 -7 11 9 -8 -12 -21 -20
-21 -7 11 9 -8 -12 -21 -20
-22 -8 10 9 -7 -11 -20 -20
-21 -8 10 9 -7 -11 -20 -20
-20 -7 11 9 -7 -11 -20 -19
-19 -6 11 9 -7 -11 -20 -19
-18 -6 11 9 -7 -11 -20 -19
-17 -5 12 8 -7 -11 -19 -18
-17 -5 12 8 -7 -11 -19 -18
-18 -4 12 8 -8 -11 -19 -18
-18 -4 12 8 -8 -11 -19 -18
-18 -4 12 8 -8 -11 -19 -18
-19 -3 11 7 -9 -12 -20 -17
-19 -3 11 6 -9 -13 -20 -17
-18 -3 10 5 -10 -14 -21 -18
-18 -3 10 5 -11 -14 -22 -18
-18 -3 10 4 -11 -15 -22 -18
-17 -3 9 3 -12 -16 -23 -19
-17 -3 9 3 -12 -16 -23 -19
-18 -3 9 3 -12 -17 -23 -19
-18 -3 9 3 -12 -17 -23 -19
-18 -3 9 3 -12 -17 -23 -19
-19 -2 10 2 -13 -18 -23 -19
-19 -2 10 2 -13 -18 -23 -19
-18 -2 9 1 -14 -18 -23 -19
-18 -2 9 1 -14 -18 -23 -19
-18 -2 9 1 -14 -18 -23 -19
-17 -2 8 0 -15 -18 -24 -19
-17 -2 8 0 -15 -18 -24 -19
-17 -2 7 0 -15 -18 -24 -19
-17 -2 7 0 -15 -18 -24 -19
-17 -2 7 0 -15 -18 -24 -19
-18 -2 6 -2 -15 -18 -25 -20
-18 -2 6 -2 -15 -18 -25 -20
-19 0 6 -2 -16 -19 -25 -19
-19 0 6 -2 -16 -19 -25 -19
-19 0 6 -2 -16 -19 -25 -19
-20 1 6 -3 -17 -20 -25 -18
-20 2 6 -4 -17 -20 -25 -18
-19 4 5 -5 -18 -21 -25 -18
-19 5 4 -5 -19 -21 -25 -18
-19 6 4 -6 -19 -21 -25 -18
-18 7 3 -7 -20 -22 -26 -18
-18 5 3 -7 -20 -22 -26 -18
-18 4 4 -6 -19 -21 -25 -17
-18 2 4 -5 -18 -20 -24 -17
-18 1 4 -5 -18 -20 -24 -17
-17 0 5 -4 -17 -19 -23 -16
-17 0 5 -4 -17 -19 -23 -16
-17 0 5 -4 -17 -19 -23 -15
-17 0 5 -4 -17 -19 -23 -15
-17 0 5 -4 -17 -19 -23 -15
-17 1 6 -4 -16 -19 -23 -14
-17 1 6 -5 -17 -19 -23 -15
-17 0 6 -6 -19 -20 -24 -16
-17 -2 6 -6 -20 -21 -25 -16
-17 -2 6 -7 -21 -21 -25 -17
-16 -3 6 -8 -22 -22 -26 -18
-16 -2 6 -8 -22 -22 -26 -18
-16 0 6 -7 -22 -22 -26 -18
-16 0 6 -6 -22 -22 -26 -18
-16 1 6 -6 -22 -22 -26 -18
-16 1 6 -5 -21 -21 -25 -17
-16 -2 6 -5 -21 -21 -25 -16
-17 -4 7 -5 -20 -21 -24 -14
-18 -6 7 -5 -19 -21 -24 -13
-18 -9 7 -5 -19 -21 -24 -12
-19 -10 8 -5 -18 -20 -23 -11
-19 -10 8 -5 -18 -20 -23 -11
-18 -10 8 -5 -18 -20 -23 -11
-17 -10 8 -5 -18 -20 -23 -11
-17 -10 8 -5 -18 -20 -23 -11
-16 -10 7 -5 -19 -19 -24 -11
-16 -11 7 -5 -19 -19 -24 -11
-17 -12 7 -5 -19 -19 -23 -10
-17 -13 7 -5 -19 -19 -23 -10
-17 -14 7 -5 -19 -19 -23 -10
-18 -15 8 -5 -19 -18 -22 -9
-18 -15 8 -5 -19 -18 -22 -9
-19 -16 9 -4 -18 -17 -21 -9
-20 -17 10 -4 -17 -17 -21 -9
-20 -17 10 -4 -17 -17 -21 -9
-20 -18 11 -3 -16 -16 -20 -8
-18 -17 11 -3 -15 -16 -20 -8
-16 -15 12 -2 -14 -15 -19 -7
-14 -14 13 0 -14 -14 -18 -7
-11 -13 13 0 -13 -14 -18 -7
-10 -12 14 1 -12 -13 -17 -6
-10 -11 15 2 -11 -12 -16 -6
-11 -10 16 3 -10 -11 -15 -5
-12 -10 16 4 -10 -10 -15 -4
-12 -9 17 5 -9 -9 -14 -4
-13 -8 18 6 -8 -8 -13 -3
-12 -7 18 7 -8 -7 -13 -3
-10 -5 19 9 -7 -6 -12 -2
-9 -4 20 10 -6 -6 -12 -2
-8 -3 20 11 -6 -5 -12 -2
-7 0 21 12 -5 -4 -11 0
-6 2 19 12 -5 -4 -11 0
-4 4 18 11 -5 -5 -12 -2
-3 6 17 11 -5 -5 -12 -3
-2 8 15 11 -5 -5 -12 -3
0 9 14 10 -6 -6 -13 -4
0 9 13 11 -4 -4 -11 -3
1 8 11 13 -2 -2 -9 0
2 8 10 14 0 1 -7 1
2 8 9 15 2 3 -5 2
3 7 8 15 3 4 -4 3
3 7 6 13 1 2 -5 3
3 6 4 11 -2 1 -6 3
3 6 3 9 -4 0 -6 3
3 6 1 7 -6 -3 -7 3
4 5 0 5 -7 -4 -8 2
4 4 0 4 -8 -5 -9 2
4 3 0 2 -9 -6 -10 1
4 2 0 1 -10 -7 -10 0
4 1 0 0 -11 -8 -11 0
4 0 -2 -2 -12 -9 -12 -2
2 0 -2 -2 -12 -9 -12 -2
0 1 0 -2 -13 -10 -13 -3
-2 1 0 -2 -14 -11 -14 -4
-4 1 0 -2 -14 -11 -14 -4
-6 1 1 -3 -15 -12 -15 -5
-9 -2 3 -3 -16 -13 -16 -6
-12 -4 5 -4 -17 -14 -17 -7
-15 -6 6 -4 -17 -15 -18 -8
-18 -8 8 -4 -18 -16 -19 -9
-20 -9 9 -5 -19 -17 -20 -10
-20 -9 9 -5 -20 -18 -21 -10
-20 -9 9 -6 -21 -19 -22 -11
-20 -9 9 -6 -21 -19 -23 -12
-20 -9 9 -6 -22 -20 -24 -12
-21 -8 9 -7 -23 -21 -25 -13
-21 -9 9 -7 -23 -21 -25 -13
-21 -10 9 -8 -23 -21 -25 -13
-21 -11 9 -9 -23 -21 -25 -13
-21 -12 9 -9 -23 -21 -25 -13
-21 -13 9 -10 -22 -21 -24 -12
-21 -13 9 -10 -22 -21 -24 -12
-21 -12 8 -10 -22 -21 -24 -11
-21 -11 8 -10 -22 -21 -24 -11
-21 -11 8 -10 -22 -21 -24 -11
-20 -10 7 -9 -23 -22 -23 -10
-20 -10 7 -9 -23 -22 -23 -10
-21 -9 7 -9 -23 -21 -23 -11
-21 -8 7 -9 -23 -20 -23 -11
-21 -8 7 -9 -23 -20 -23 -11
-22 -5 10 -3 -19 -15 -22 -12
-22 2 16 10 -7 -7 -18 -11
-22 7 21 22 5 2 -14 -10
-22 13 27 35 16 11 -10 -9
-22 19 33 48 28 19 -6 -8
-14 27 35 56 39 31 5 -3
2 38 32 59 52 46 20 8
16 50 29 62 64 60 35 17
31 61 25 65 76 75 52 27
47 72 22 68 89 90 67 37
62 96 4 53 96 109 99 63
78 133 -32 16 98 133 148 107
95 171 -67 -21 101 156 197 150
111 207 -103 -58 104 180 245 193
128 244 -138 -95 106 204 295 237
132 253 -159 -127 90 194 300 251
120 228 -168 -153 52 147 256 231
110 203 -175 -181 14 100 212 211
99 179 -182 -207 -23 53 168 191
88 154 -190 -234 -61 6 123 171
75 133 -187 -247 -91 -32 84 148
61 114 -172 -244 -111 -62 48 121
47 95 -155 -242 -132 -91 12 95
32 76 -140 -239 -151 -119 -24 69
18 58 -123 -236 -172 -149 -59 43
8 44 -108 -220 -173 -156 -76 25
3 33 -92 -188 -150 -138 -72 19
-3 24 -74 -156 -128 -119 -67 13
-8 14 -58 -124 -105 -101 -63 6
-13 5 -41 -93 -82 -82 -58 0
-16 -2 -30 -71 -67 -70 -54 -5
-18 -4 -24 -63 -61 -64 -50 -5
-20 -6 -18 -54 -54 -58 -46 -6
-22 -8 -12 -45 -48 -52 -41 -7
-24 -10 -7 -35 -40 -47 -37 -7
-26 -12 -3 -30 -36 -43 -34 -9
-26 -10 -3 -29 -36 -43 -34 -11
-26 -9 -3 -28 -36 -43 -34 -13
-26 -7 -2 -26 -35 -43 -35 -15
-26 -5 -2 -25 -35 -43 -35 -17
-25 -4 0 -24 -34 -41 -36 -19
-25 -6 1 -22 -33 -41 -36 -19
-25 -7 1 -21 -32 -40 -36 -19
-25 -8 2 -20 -31 -39 -36 -18
-25 -10 3 -18 -30 -39 -36 -18
-26 -11 4 -17 -29 -38 -35 -17
-26 -11 4 -17 -29 -38 -35 -17
-26 -11 4 -17 -29 -38 -35 -17
-25 -10 4 -17 -29 -38 -35 -17
-25 -10 4 -17 -29 -38 -35 -17
-24 -9 3 -18 -29 -38 -36 -18
-24 -9 3 -18 -29 -38 -36 -19
-24 -9 3 -18 -29 -38 -36 -19
-25 -10 3 -17 -29 -37 -36 -20
-25 -10 3 -17 -29 -37 -36 -21
-26 -11 3 -16 -28 -36 -36 -22
-26 -11 3 -16 -28 -35 -36 -22
-26 -11 3 -15 -27 -34 -36 -22
-25 -11 4 -14 -26 -33 -36 -21
-25 -11 4 -14 -26 -32 -36 -21
-24 -11 5 -13 -25 -31 -35 -20
-24 -13 6 -13 -25 -31 -34 -20
-24 -14 6 -12 -24 -31 -34 -19
-24 -15 7 -11 -23 -31 -33 -18
-24 -17 8 -11 -23 -31 -32 -18
-24 -18 9 -10 -22 -30 -31 -17
-24 -16 8 -10 -22 -30 -31 -19
-23 -15 7 -10 -22 -30 -31 -20
-22 -13 6 -10 -22 -30 -32 -21
-22 -11 5 -10 -22 -30 -32 -23
-21 -10 4 -11 -23 -30 -33 -24
-20 -10 4 -11 -22 -30 -32 -24
-20 -10 4 -10 -22 -30 -31 -24
-19 -10 5 -9 -21 -30 -30 -23
-18 -10 5 -9 -20 -30 -29 -23
-17 -11 6 -8 -19 -30 -28 -22
-17 -11 6 -8 -18 -29 -27 -21
-16 -11 6 -8 -18 -28 -27 -20
-15 -11 6 -7 -17 -26 -26 -18
-15 -11 6 -7 -16 -25 -25 -17
-14 -12 5 -6 -15 -24 -24 -16
-14 -12 5 -4 -14 -23 -23 -16
-14 -13 5 -3 -13 -22 -23 -16
-14 -14 5 -2 -12 -21 -22 -16
-14 -14 5 1 -11 -20 -21 -16
-14 -15 6 2 -10 -19 -20 -15
-14 -15 6 3 -8 -17 -18 -15
-13 -14 6 3 -7 -15 -17 -15
-12 -13 5 4 -6 -13 -16 -14
-12 -13 5 5 -4 -12 -14 -14
-11 -12 4 6 -3 -10 -13 -13
-8 -12 4 7 -2 -9 -13 -13
-6 -11 4 9 1 -9 -12 -13
-4 -10 4 10 2 -8 -11 -13
-2 -10 4 12 4 -7 -11 -13
1 -9 4 13 5 -5 -9 -13
1 -9 4 15 7 -3 -7 -12
1 -9 3 16 9 1 -5 -12
2 -10 2 18 11 4 -2 -11
2 -10 2 20 13 7 1 -10
3 -11 1 21 15 9 3 -9
5 -11 1 23 17 11 5 -7
7 -11 1 24 18 13 7 -5
9 -12 1 26 20 15 9 -3
10 -12 1 28 22 16 10 0
12 -13 0 29 24 19 13 2
15 -12 -2 32 27 22 15 3
17 -10 -3 34 30 25 18 5
19 -9 -5 36 33 28 20 6
21 -7 -6 38 36 31 23 8
23 -6 -7 40 39 34 26 9
25 -6 -7 44 42 36 28 10
27 -5 -7 46 45 39 31 12
29 -4 -7 48 48 42 34 13
31 -4 -7 50 51 45 37 15
33 -3 -8 52 54 48 40 16
35 0 -9 54 57 51 44 19
37 2 -9 56 60 54 48 21
39 4 -10 58 63 57 51 23
40 6 -11 59 66 60 54 25
43 8 -12 61 68 62 57 27
45 10 -13 62 70 64 59 28
47 12 -13 62 71 66 61 30
49 14 -14 63 73 68 63 31
51 15 -15 64 75 69 65 33
53 18 -16 65 76 71 67 34
55 22 -19 64 76 71 67 34
57 25 -21 63 76 71 68 34
59 29 -23 61 75 71 69 35
61 32 -25 60 75 71 69 35
63 35 -27 59 74 71 70 36
63 35 -27 59 74 71 71 37
64 35 -27 59 74 71 72 39
65 35 -28 59 75 72 73 40
65 35 -28 59 75 72 74 43
66 36 -29 60 76 73 75 44
65 38 -30 58 75 72 75 44
65 40 -31 56 74 71 75 44
64 43 -32 54 73 70 75 44
63 44 -33 52 72 69 75 44
62 46 -34 50 71 67 74 44
61 46 -32 49 68 65 71 44
60 46 -31 48 66 62 69 43
58 46 -29 47 63 60 67 42
57 46 -27 46 61 57 65 42
56 46 -26 44 58 54 62 40
53 47 -26 42 55 50 59 37
50 47 -26 38 52 46 55 35
48 48 -26 35 49 43 52 33
45 49 -26 32 46 38 49 31
42 50 -25 30 43 34 45 29
39 50 -23 28 39 31 42 28
36 50 -21 26 36 28 38 26
33 50 -19 24 33 25 35 25
30 50 -17 23 30 22 32 23
28 49 -15 21 27 19 29 22
