I II V1 V2 V3 V4 V5 V6
25 21 24 66 39 32 -14 12
36 25 23 63 42 38 -5 21
18 27 32 68 49 50 1 28
5 19 31 66 50 48 0 26
0 14 29 61 48 48 -1 27
-11 19 36 64 58 60 7 37
-24 14 31 57 45 44 -9 25
-4 14 22 45 35 31 -16 16
7 18 18 39 31 29 -16 17
0 21 18 37 25 24 -20 15
14 18 7 24 10 7 -34 4
23 20 8 23 14 17 -23 12
4 15 13 26 17 24 -23 14
1 15 13 26 18 24 -25 13
-1 14 13 23 18 24 -26 15
-11 21 22 28 30 37 -18 25
-16 20 20 26 22 27 -30 18
1 16 9 11 10 12 -40 10
6 12 4 3 3 8 -42 9
-2 9 3 2 -2 2 -47 6
10 6 -7 -8 -19 -15 -61 -6
25 13 -4 -8 -14 -6 -55 -1
9 10 1 -3 -8 1 -53 4
-5 4 2 -3 -8 1 -57 2
-8 1 2 -4 -6 3 -56 4
-23 2 10 4 4 16 -49 13
-32 -3 7 4 -4 4 -62 4
-7 0 -2 -10 -12 -6 -67 -1
3 2 -3 -13 -14 -6 -66 0
-5 -3 -2 -12 -18 -11 -70 -3
10 -6 -12 -22 -34 -29 -85 -13
22 -2 -10 -21 -29 -19 -77 -6
7 0 -3 -13 -20 -10 -73 0
-2 3 0 -9 -18 -10 -75 -1
-2 1 -2 -12 -18 -10 -79 -3
-16 1 4 -5 -7 3 -70 6
-32 -6 3 -7 -15 -8 -84 -2
-12 -5 -4 -15 -20 -14 -87 -6
-7 -4 -4 -18 -21 -14 -86 -5
-13 -8 -6 -18 -25 -19 -91 -9
1 -14 -17 -30 -41 -35 -105 -20
5 -9 -15 -26 -35 -25 -95 -11
-11 -11 -7 -19 -27 -17 -93 -6
-18 -14 -6 -19 -27 -18 -95 -8
-13 -14 -7 -20 -28 -18 -99 -11
-18 -7 2 -11 -12 -2 -88 1
-34 -12 1 -12 -19 -12 -100 -6
-19 -11 -5 -19 -24 -18 -102 -7
-5 -6 -6 -22 -26 -17 -102 -7
-9 -1 -5 -20 -27 -19 -103 -6
2 0 -11 -26 -36 -30 -111 -13
14 2 -10 -26 -30 -20 -101 -8
1 -4 -5 -20 -26 -14 -102 -6
-10 -14 -4 -18 -25 -13 -104 -7
-7 -17 -5 -20 -25 -16 -107 -9
-21 -14 2 -12 -13 -3 -99 0
-39 -17 2 -12 -19 -11 -109 -6
-24 -14 -5 -22 -27 -22 -116 -11
-14 -13 -8 -24 -28 -22 -114 -11
-18 -16 -7 -22 -30 -25 -115 -12
3 -11 -15 -30 -41 -40 -125 -19
22 2 -10 -27 -33 -26 -112 -9
1 -2 -3 -18 -23 -16 -107 -4
-6 2 -1 -16 -21 -14 -109 -3
-6 1 -2 -16 -21 -15 -109 -3
-26 -2 8 -8 -10 -1 -100 4
-38 -5 10 -5 -11 -7 -106 0
-18 -9 1 -15 -20 -20 -110 -7
-9 -9 -3 -18 -27 -24 -112 -11
-14 -8 -2 -19 -27 -25 -112 -12
-5 -15 -11 -27 -38 -39 -120 -21
13 -6 -11 -26 -33 -29 -111 -14
2 -7 -4 -18 -25 -19 -104 -7
-14 -10 1 -15 -20 -16 -101 -5
-13 -10 1 -14 -19 -16 -98 -5
-36 -17 5 -11 -10 -5 -90 1
-59 -30 3 -11 -18 -16 -102 -8
-35 -27 -4 -20 -24 -24 -104 -13
-22 -12 0 -16 -21 -20 -96 -8
-25 -2 5 -9 -19 -20 -98 -7
1 -4 -6 -19 -34 -38 -110 -19
17 -3 -6 -19 -27 -29 -101 -11
7 -2 1 -12 -20 -19 -93 -6
-6 -6 4 -10 -18 -18 -91 -7
-6 -9 4 -10 -17 -17 -89 -6
-15 -8 10 -3 -4 -2 -77 4
-26 -13 9 -4 -11 -11 -87 -3
-13 -11 3 -12 -19 -21 -90 -8
-16 -12 3 -12 -18 -19 -86 -9
-21 -11 5 -10 -19 -20 -89 -11
-3 -11 -4 -18 -32 -36 -99 -20
8 -10 -4 -18 -26 -28 -91 -14
-2 -3 2 -11 -19 -19 -88 -10
-8 -6 4 -10 -19 -18 -88 -9
-3 -12 1 -13 -21 -20 -87 -11
-21 -16 8 -6 -8 -5 -74 0
-42 -29 7 -8 -14 -13 -81 -7
-23 -30 0 -12 -21 -23 -84 -12
-11 -18 0 -15 -20 -22 -82 -11
-19 -12 2 -14 -21 -23 -81 -11
-2 -10 -5 -19 -32 -36 -91 -19
12 -5 -3 -18 -25 -27 -81 -11
-7 -6 2 -14 -21 -23 -80 -11
-16 -4 4 -9 -18 -20 -80 -10
-15 -11 5 -9 -17 -20 -80 -11
-30 -14 12 -3 -6 -6 -69 -1
-38 -16 9 -5 -13 -16 -77 -9
-19 -18 1 -13 -22 -25 -80 -14
-8 -14 -1 -16 -23 -28 -78 -16
-15 -16 -2 -17 -25 -31 -80 -17
-3 -16 -11 -25 -39 -46 -93 -26
13 -7 -7 -23 -31 -34 -82 -18
-12 -11 -2 -16 -24 -27 -76 -13
-22 -11 0 -11 -24 -28 -79 -15
-15 -12 1 -12 -22 -26 -77 -15
-24 -12 6 -7 -12 -14 -68 -7
-36 -14 6 -6 -18 -22 -75 -13
-17 -16 -1 -18 -27 -31 -78 -19
-15 -18 -4 -22 -28 -32 -78 -20
-22 -22 -2 -19 -28 -32 -77 -19
0 -15 -8 -25 -38 -42 -84 -24
12 -11 -9 -26 -34 -36 -77 -21
-7 -17 -6 -21 -29 -31 -73 -19
-18 -23 -5 -19 -29 -31 -75 -19
-14 -19 -2 -16 -25 -29 -73 -17
-23 -14 5 -11 -13 -16 -61 -9
-41 -20 6 -9 -20 -24 -67 -14
-20 -20 2 -15 -25 -29 -68 -16
-15 -18 -1 -18 -25 -30 -66 -16
-15 -16 -1 -18 -28 -33 -68 -17
3 -13 -7 -24 -38 -44 -75 -24
13 -7 -6 -23 -31 -34 -65 -17
-2 -10 -1 -17 -24 -27 -61 -12
-14 -10 1 -15 -24 -26 -60 -14
-16 -15 2 -14 -23 -28 -60 -14
-26 -17 8 -9 -14 -14 -49 -6
-44 -23 7 -10 -20 -23 -58 -14
-27 -23 0 -18 -28 -34 -63 -19
-10 -15 0 -19 -28 -32 -60 -17
-20 -18 -2 -18 -31 -35 -62 -19
-10 -27 -13 -30 -43 -50 -75 -29
0 -27 -14 -33 -39 -42 -65 -24
-13 -28 -11 -30 -36 -38 -64 -24
-21 -27 -5 -23 -31 -34 -60 -21
-26 -25 -2 -19 -26 -32 -56 -18
-29 -14 6 -13 -15 -19 -45 -10
-39 -18 5 -13 -22 -27 -53 -17
-25 -19 -2 -21 -29 -37 -57 -22
-20 -17 -3 -22 -29 -37 -56 -22
-25 -18 -2 -22 -33 -37 -58 -24
-12 -23 -11 -29 -44 -52 -72 -33
6 -19 -12 -31 -39 -43 -64 -27
-16 -25 -6 -25 -32 -36 -59 -22
-25 -24 -1 -19 -29 -33 -54 -19
-11 -15 1 -17 -24 -29 -49 -14
-13 -7 8 -12 -14 -17 -38 -7
-26 -8 8 -12 -21 -25 -46 -13
-16 -19 -2 -23 -31 -38 -51 -21
-21 -27 -6 -26 -33 -40 -53 -24
-30 -31 -5 -25 -35 -42 -55 -26
-14 -25 -12 -30 -45 -53 -65 -31
5 -17 -9 -28 -36 -42 -53 -23
-14 -26 -7 -27 -33 -36 -49 -21
-22 -24 -3 -23 -29 -34 -47 -20
-11 -17 0 -20 -25 -31 -41 -17
-18 -15 7 -14 -13 -17 -28 -7
-32 -17 8 -14 -21 -26 -36 -14
-16 -16 0 -21 -29 -35 -41 -20
-15 -21 -5 -27 -33 -39 -44 -23
-20 -21 -4 -26 -35 -41 -48 -24
-8 -28 -14 -36 -49 -57 -63 -35
8 -25 -16 -38 -45 -54 -58 -31
-10 -26 -7 -28 -34 -43 -50 -24
-23 -30 -6 -26 -35 -41 -49 -25
-28 -31 -3 -24 -31 -38 -43 -23
-34 -23 6 -15 -17 -22 -29 -10
-44 -25 5 -16 -23 -30 -37 -16
-21 -17 1 -20 -28 -38 -40 -19
-10 -11 2 -20 -28 -36 -36 -18
-20 -19 1 -21 -31 -41 -41 -22
-7 -25 -10 -29 -43 -56 -54 -33
7 -18 -8 -30 -39 -48 -48 -28
-11 -15 1 -20 -30 -38 -42 -22
-13 -12 4 -16 -26 -36 -39 -22
-12 -16 1 -21 -27 -37 -40 -24
-23 -16 8 -13 -16 -23 -28 -15
-39 -15 9 -11 -19 -29 -31 -17
-22 -11 3 -19 -24 -36 -34 -19
-13 -9 1 -20 -25 -35 -31 -19
-15 -6 3 -18 -24 -36 -30 -18
-1 -8 -4 -25 -35 -48 -40 -27
20 2 -4 -25 -29 -40 -32 -22
2 -1 0 -20 -23 -34 -29 -20
-11 -7 1 -18 -21 -33 -31 -21
-9 -6 0 -17 -19 -30 -25 -18
-15 1 6 -10 -7 -15 -13 -8
-26 -5 3 -11 -13 -22 -19 -13
-15 -13 -8 -21 -23 -32 -25 -18
-9 -13 -8 -22 -23 -33 -24 -17
-7 -10 -6 -20 -23 -34 -25 -16
-2 -16 -13 -28 -34 -46 -34 -25
9 -7 -9 -25 -26 -38 -26 -19
-4 -11 -5 -21 -22 -32 -23 -18
-17 -14 -3 -19 -22 -33 -25 -19
-15 -15 -3 -21 -22 -33 -24 -19
-17 -13 3 -16 -14 -22 -14 -11
-33 -19 0 -17 -22 -32 -24 -18
-18 -19 -3 -20 -25 -38 -25 -20
-19 -18 -3 -19 -24 -35 -21 -17
-21 -21 -4 -21 -28 -39 -24 -19
-3 -26 -13 -30 -40 -51 -35 -29
11 -24 -13 -31 -34 -44 -27 -25
0 -22 -10 -27 -31 -38 -24 -23
-7 -21 -8 -26 -30 -39 -25 -23
-8 -20 -8 -26 -30 -39 -24 -22
-21 -18 -2 -18 -21 -27 -13 -13
-44 -30 -4 -21 -29 -38 -22 -21
-37 -37 -9 -29 -36 -46 -27 -24
-30 -36 -12 -32 -39 -48 -28 -27
-31 -32 -8 -28 -36 -48 -29 -27
-7 -21 -7 -28 -39 -53 -32 -30
12 -12 -4 -25 -32 -43 -24 -24
-7 -19 -1 -22 -29 -39 -24 -26
-12 -21 0 -21 -27 -37 -23 -26
-12 -23 0 -22 -26 -39 -22 -25
-22 -19 7 -16 -17 -25 -10 -15
-43 -27 6 -18 -24 -35 -18 -22
-31 -29 -1 -25 -33 -47 -25 -27
-23 -28 -3 -29 -36 -48 -25 -29
-25 -29 -3 -28 -38 -50 -26 -30
-9 -32 -11 -35 -47 -61 -37 -39
5 -31 -12 -37 -41 -53 -29 -34
-8 -30 -6 -31 -34 -47 -25 -32
-16 -31 -4 -28 -31 -44 -22 -30
-14 -32 -2 -26 -29 -41 -18 -27
-23 -30 3 -21 -19 -29 -8 -20
-39 -32 5 -19 -24 -35 -13 -24
-31 -29 0 -24 -30 -44 -18 -27
-28 -27 0 -23 -29 -42 -15 -26
-28 -32 -2 -25 -32 -46 -19 -30
-19 -38 -11 -32 -44 -61 -34 -41
-6 -36 -11 -33 -41 -57 -31 -40
-22 -39 -4 -25 -35 -48 -27 -38
-32 -44 3 -17 -32 -48 -28 -40
-25 -38 13 -6 -27 -45 -27 -39
-34 -36 26 10 -13 -31 -19 -31
-48 -38 37 28 -9 -34 -22 -33
-29 -39 38 34 -5 -35 -25 -35
-24 -28 49 49 12 -24 -16 -29
-29 -19 63 76 32 -14 -10 -25
-12 -11 75 100 46 -13 -14 -28
10 6 89 120 72 8 0 -18
-2 15 93 132 103 38 22 -1
-9 24 77 117 121 60 40 15
4 43 42 84 135 87 68 39
17 67 22 81 182 145 116 77
14 85 1 81 216 185 146 104
45 110 -22 70 252 224 177 130
68 135 -42 69 299 276 217 161
75 153 -74 62 339 322 250 192
99 186 -116 42 369 360 283 220
122 224 -155 12 399 400 322 257
113 254 -190 -24 402 417 348 285
98 242 -218 -74 369 397 342 287
89 198 -228 -106 305 352 312 267
79 170 -225 -136 235 306 291 255
58 138 -232 -184 131 226 247 226
67 116 -248 -253 -4 121 191 189
65 97 -255 -311 -135 22 142 155
51 69 -245 -306 -179 -28 106 128
55 46 -227 -280 -182 -57 74 98
59 42 -199 -245 -158 -54 61 83
35 29 -166 -207 -135 -48 51 71
27 14 -144 -180 -123 -48 40 57
27 5 -126 -157 -109 -45 32 46
15 3 -104 -132 -87 -31 34 43
-7 -5 -89 -111 -81 -36 22 30
2 -9 -81 -101 -77 -42 14 19
2 -12 -67 -90 -69 -42 8 9
-1 -13 -54 -77 -63 -43 1 1
10 -14 -51 -72 -67 -55 -13 -13
23 -15 -41 -59 -51 -43 -6 -11
-2 -21 -24 -39 -35 -31 -3 -7
-17 -22 -13 -25 -24 -24 0 -6
-14 -20 -6 -18 -17 -20 4 -6
-25 -15 5 -9 -5 -6 13 1
-47 -21 8 -4 -8 -13 6 -5
-31 -22 3 -11 -14 -23 -1 -9
-20 -21 3 -12 -17 -25 -2 -13
-5 -7 9 -4 -14 -22 -1 -12
5 -12 4 -8 -22 -35 -14 -20
15 -15 3 -8 -17 -29 -11 -19
5 -16 10 0 -7 -20 -5 -16
-8 -20 15 5 -5 -17 -4 -15
-9 -23 15 5 -4 -18 -4 -14
-17 -20 20 9 4 -6 6 -8
-37 -24 23 11 0 -13 0 -11
-23 -26 20 7 -6 -21 -5 -13
-19 -26 18 4 -9 -24 -6 -15
-18 -27 20 6 -9 -22 -5 -15
-6 -27 14 2 -17 -35 -16 -23
4 -25 11 0 -14 -30 -12 -23
-7 -24 16 8 -6 -20 -6 -20
-11 -25 17 10 -3 -18 -6 -19
-11 -23 17 9 -2 -18 -7 -20
-22 -22 27 19 11 -3 6 -10
-41 -28 29 21 6 -9 2 -13
-30 -32 22 11 -3 -18 -5 -18
-26 -31 24 15 0 -14 -2 -16
-38 -31 26 19 -2 -17 -6 -18
-19 -29 19 10 -13 -34 -19 -27
6 -25 16 8 -9 -27 -14 -25
-4 -24 21 15 -2 -19 -11 -22
-2 -19 23 20 2 -14 -7 -20
-4 -14 28 23 9 -9 -2 -14
-19 -13 35 31 20 7 11 -3
-43 -25 35 30 14 -1 5 -8
-33 -26 31 23 7 -10 1 -13
-23 -26 29 22 6 -10 1 -14
-20 -22 28 24 4 -13 -2 -16
-8 -22 22 21 -6 -26 -14 -24
6 -21 22 21 1 -19 -8 -20
-10 -29 25 26 7 -13 -7 -19
-10 -21 29 31 14 -8 -3 -16
-12 -19 31 31 18 -4 4 -11
-25 -21 37 37 28 8 15 -4
-29 -16 37 38 23 2 9 -6
-6 -10 34 34 19 -2 10 -6
-7 -12 35 37 21 0 13 -5
-17 -16 35 38 21 -2 10 -8
-12 -21 26 32 9 -17 -3 -18
11 -15 25 32 14 -12 1 -17
4 -7 34 42 25 1 8 -10
-2 -7 37 46 29 3 8 -9
-1 -11 38 46 31 5 11 -8
-11 -10 44 53 41 19 22 1
-27 -13 46 55 38 15 18 0
-9 -13 40 49 32 9 15 -2
-8 -14 38 49 32 8 16 -2
-15 -17 39 51 31 5 15 -3
-9 -23 34 47 22 -5 5 -10
2 -17 32 48 26 -2 8 -9
-6 -15 38 57 34 8 14 -5
-5 -10 43 63 41 12 15 -3
-6 -6 44 66 43 15 16 -2
-11 -6 49 72 53 28 27 6
-24 -6 51 73 47 22 22 3
-7 -3 49 70 45 18 21 3
4 -4 47 69 45 19 23 4
-1 -5 48 71 43 17 22 3
5 -5 44 70 37 8 12 -3
12 -3 44 74 45 15 18 0
-1 -3 49 82 52 24 22 3
-4 -3 51 85 55 26 22 3
-5 -2 52 88 60 28 24 4
-10 0 57 92 69 39 34 11
-21 -1 59 95 67 36 31 12
-8 -3 54 91 60 29 27 8
-6 0 56 93 65 36 34 13
-10 4 59 99 64 36 32 12
2 1 51 93 55 21 20 2
29 10 51 95 63 32 28 8
15 11 57 104 72 42 35 12
8 8 57 106 74 42 34 11
11 8 57 106 75 44 34 13
-3 11 61 111 82 53 43 19
-18 12 64 113 81 50 42 20
-6 10 59 108 75 43 36 17
5 15 60 109 76 46 41 20
6 18 62 112 78 49 42 23
13 13 55 107 69 37 32 14
29 16 54 106 73 42 38 16
22 19 56 109 78 49 43 18
14 21 59 113 82 52 45 20
8 19 62 114 84 56 48 24
-4 15 64 115 89 63 55 28
-19 14 64 114 84 56 51 24
-2 15 57 106 76 47 46 21
4 15 54 102 72 43 44 19
3 20 57 107 71 42 43 19
16 19 50 98 62 31 34 12
29 20 49 97 66 36 37 15
17 20 52 99 73 43 43 18
6 16 52 98 73 46 46 17
10 18 52 95 72 44 46 19
-2 18 56 95 79 56 57 26
-29 4 52 90 69 44 48 20
-10 4 43 81 58 33 40 15
3 15 44 78 59 34 42 19
-5 16 42 76 54 29 38 16
2 12 33 66 43 14 27 7
16 13 30 61 46 20 31 9
4 15 35 65 51 29 37 12
-5 11 35 62 50 29 38 12
1 8 30 57 47 25 34 10
-2 14 35 59 54 36 46 19
-28 5 35 55 47 29 43 16
-16 6 29 45 38 19 40 14
-3 11 25 38 34 17 38 13
-10 5 22 33 27 11 31 8
-1 8 18 30 20 1 25 4
22 15 16 25 23 5 27 5
14 14 18 26 25 10 29 5
2 9 17 23 25 10 29 5
-3 2 12 16 22 6 26 1
-6 8 18 19 29 17 36 10
-22 2 22 21 26 15 37 11
-15 0 15 14 16 3 31 7
-7 1 10 8 12 0 28 5
-8 -1 7 3 5 -6 23 0
-6 -10 -1 -3 -7 -22 9 -11
1 -13 -2 -7 -4 -17 12 -9
-19 -18 2 -4 1 -11 16 -7
-27 -18 3 -3 0 -12 13 -9
-18 -14 3 -3 0 -13 13 -8
-11 -1 10 2 10 0 27 1
-29 -7 11 0 3 -6 23 -1
-16 -11 5 -8 -5 -16 18 -5
-13 -10 3 -10 -6 -15 19 -7
-19 -11 4 -9 -7 -17 16 -9
-12 -15 -4 -17 -20 -33 2 -19
5 -8 -5 -18 -16 -29 3 -17
-5 -12 -2 -13 -11 -20 7 -14
-12 -13 0 -12 -10 -22 5 -15
-12 -18 -1 -13 -11 -23 4 -15
-15 -17 3 -10 -4 -12 14 -7
-33 -21 5 -9 -7 -17 13 -8
-19 -20 0 -15 -14 -22 11 -10
-15 -20 -2 -17 -15 -22 12 -10
-12 -18 -2 -17 -18 -24 9 -12
-3 -19 -8 -24 -26 -36 0 -19
6 -21 -11 -25 -23 -31 2 -19
-7 -19 -6 -20 -17 -23 7 -15
-17 -20 -4 -18 -16 -22 8 -15
-17 -18 -3 -17 -16 -22 8 -15
-16 -11 3 -12 -6 -9 19 -6
-32 -11 6 -10 -10 -14 16 -7
-15 -12 -1 -18 -17 -22 12 -10
-9 -17 -5 -21 -20 -24 9 -14
-14 -25 -6 -21 -23 -28 5 -16
1 -20 -11 -27 -32 -39 -4 -22
18 -10 -8 -26 -23 -28 4 -16
4 -11 -4 -20 -17 -23 9 -13
-5 -19 -3 -20 -18 -23 7 -14
-7 -24 -5 -20 -18 -26 6 -15
-11 -11 5 -12 -5 -11 19 -3
-26 -13 7 -9 -8 -14 17 -4
-19 -15 2 -16 -16 -23 12 -8
-13 -14 -1 -19 -18 -24 10 -11
-15 -16 -3 -20 -21 -27 6 -14
-7 -20 -9 -24 -30 -38 -4 -22
6 -19 -9 -26 -24 -32 1 -20
-6 -21 -5 -20 -18 -24 5 -16
-17 -22 -1 -17 -15 -22 6 -15
-19 -21 0 -15 -13 -19 9 -13
-25 -21 5 -11 -7 -10 15 -7
-34 -21 7 -9 -10 -15 13 -8
-21 -20 3 -15 -17 -22 8 -11
-18 -21 1 -16 -19 -25 4 -15
-23 -27 0 -16 -22 -27 2 -17
-15 -23 -3 -19 -27 -37 -6 -20
8 -11 -1 -16 -20 -27 1 -15
3 -10 1 -12 -13 -20 5 -14
-3 -15 2 -12 -14 -21 3 -16
-6 -19 3 -11 -12 -19 5 -14
-16 -21 8 -8 -3 -6 17 -5
-34 -26 8 -6 -8 -12 13 -8
-16 -20 6 -11 -13 -18 10 -9
-17 -19 6 -11 -11 -16 12 -10
-27 -20 7 -9 -13 -20 6 -11
-14 -20 2 -14 -21 -31 -3 -17
4 -16 -1 -15 -17 -27 0 -16
-5 -19 3 -12 -12 -20 3 -16
-16 -29 2 -12 -14 -21 1 -18
-6 -20 4 -10 -11 -18 3 -17
-8 -10 12 -3 1 -2 18 -5
-30 -18 14 -1 -5 -7 15 -7
-20 -19 9 -5 -9 -14 12 -9
-13 -18 6 -9 -12 -17 10 -12
-13 -18 6 -10 -15 -22 5 -14
-4 -15 3 -11 -19 -28 -3 -17
2 -17 2 -13 -16 -23 0 -17
-10 -22 2 -12 -15 -22 -2 -20
-13 -20 6 -8 -11 -19 -1 -18
-14 -22 6 -7 -10 -20 -1 -19
-16 -18 12 -2 -1 -6 12 -9
-31 -26 12 -3 -7 -12 7 -12
-21 -31 4 -12 -15 -20 1 -17
-13 -21 5 -11 -13 -20 2 -14
-11 -15 9 -8 -14 -21 1 -14
-2 -17 1 -14 -23 -34 -12 -22
9 -16 0 -13 -17 -27 -6 -19
-9 -23 1 -13 -16 -26 -7 -22
-17 -24 3 -11 -15 -24 -8 -22
-18 -22 3 -10 -13 -21 -5 -19
-17 -14 10 -4 -4 -9 8 -9
-31 -13 14 -2 -6 -12 7 -10
-17 -16 7 -8 -13 -18 2 -12
-10 -17 5 -11 -15 -21 0 -14
-9 -19 4 -11 -16 -20 0 -15
-3 -17 0 -15 -23 -29 -8 -20
10 -14 -2 -16 -18 -24 -5 -20
-6 -16 1 -13 -14 -20 -3 -21
-15 -18 4 -9 -13 -20 -5 -21
-13 -20 4 -10 -14 -21 -7 -23
-19 -21 8 -6 -5 -9 2 -14
-27 -20 9 -7 -9 -15 -1 -16
-11 -24 3 -14 -18 -22 -7 -18
-11 -25 1 -17 -19 -23 -5 -18
-14 -24 2 -15 -19 -23 -5 -18
-7 -23 -2 -19 -25 -32 -12 -23
4 -22 -4 -20 -21 -28 -10 -21
-8 -20 0 -16 -16 -21 -6 -19
-15 -19 4 -12 -14 -19 -6 -18
-16 -18 5 -11 -14 -19 -6 -18
-16 -16 9 -8 -5 -9 4 -10
-34 -24 9 -9 -12 -17 -1 -15
-25 -23 4 -13 -19 -25 -7 -17
-20 -16 4 -14 -18 -22 -6 -14
-21 -22 5 -14 -20 -24 -8 -17
-12 -26 -4 -20 -28 -34 -16 -25
6 -23 -6 -22 -24 -31 -13 -23
0 -24 -4 -20 -22 -26 -13 -25
-12 -27 -3 -19 -21 -26 -13 -25
-12 -20 0 -17 -19 -25 -12 -23
-15 -14 7 -12 -10 -13 -2 -13
-32 -24 7 -12 -16 -19 -8 -19
-26 -25 3 -16 -21 -26 -11 -19
-23 -24 0 -19 -23 -26 -11 -19
-30 -27 -1 -21 -28 -29 -16 -22
-19 -26 -4 -21 -29 -34 -21 -24
-2 -23 -4 -22 -24 -28 -15 -23
-8 -24 -2 -21 -23 -25 -13 -23
-9 -21 2 -16 -19 -21 -11 -20
-9 -22 2 -16 -17 -20 -8 -18
-16 -19 5 -13 -12 -11 1 -13
-30 -17 9 -10 -13 -13 -1 -13
-21 -14 4 -15 -18 -22 -7 -14
-16 -16 0 -19 -22 -25 -9 -17
-20 -21 -1 -20 -23 -27 -12 -20
-14 -24 -4 -25 -31 -37 -22 -25
8 -15 -2 -21 -24 -26 -15 -20
-3 -16 1 -15 -20 -21 -10 -17
-14 -18 2 -16 -19 -20 -10 -17
-8 -17 2 -17 -18 -19 -9 -15
-11 -16 4 -13 -12 -10 -1 -10
-25 -20 7 -11 -16 -15 -4 -13
-15 -23 0 -21 -24 -24 -10 -15
-16 -24 -1 -22 -26 -26 -12 -16
-15 -20 0 -20 -25 -26 -12 -17
-10 -26 -7 -26 -34 -37 -22 -25
1 -24 -9 -29 -31 -33 -21 -26
-10 -22 -4 -24 -26 -26 -18 -23
-17 -24 -2 -21 -23 -23 -17 -21
-9 -19 -1 -21 -22 -23 -17 -20
-8 -15 4 -16 -13 -10 -3 -10
-26 -15 8 -12 -15 -14 -6 -11
-12 -11 3 -18 -20 -22 -11 -13
-13 -18 -1 -23 -25 -26 -14 -15
-16 -23 -1 -21 -27 -26 -16 -18
-10 -25 -7 -27 -34 -36 -28 -26
1 -18 -7 -27 -31 -32 -25 -24
-13 -19 -3 -21 -26 -25 -20 -21
-22 -25 -2 -20 -24 -24 -21 -22
-18 -22 -3 -21 -24 -24 -22 -23
-14 -16 2 -18 -17 -13 -11 -15
-29 -21 3 -16 -19 -17 -13 -17
-19 -21 -1 -21 -26 -24 -19 -20
-5 -13 -1 -22 -24 -22 -15 -17
-12 -14 -1 -21 -25 -24 -16 -19
-10 -20 -7 -27 -33 -33 -25 -24
5 -21 -9 -31 -32 -32 -25 -25
-11 -23 -6 -26 -28 -27 -24 -24
-19 -25 -1 -20 -23 -22 -21 -21
-23 -30 -3 -22 -24 -23 -23 -22
-21 -29 -1 -23 -20 -16 -15 -18
-31 -29 1 -20 -22 -16 -16 -17
-17 -23 -3 -23 -26 -22 -18 -18
-7 -13 0 -22 -25 -20 -14 -14
-11 -16 0 -21 -25 -20 -16 -15
0 -13 -4 -24 -30 -28 -23 -19
13 -9 -4 -26 -26 -23 -21 -18
-2 -10 -1 -21 -22 -17 -18 -17
-7 -11 2 -18 -21 -18 -17 -18
-7 -14 -1 -20 -21 -19 -21 -20
-17 -18 4 -17 -14 -10 -14 -15
-33 -18 7 -12 -16 -14 -17 -15
-16 -14 3 -16 -20 -19 -21 -18
-4 -9 3 -17 -20 -18 -21 -16
-8 -9 5 -15 -20 -17 -19 -15
-4 -12 -1 -20 -26 -25 -25 -19
6 -13 -2 -22 -23 -21 -23 -20
-1 -10 1 -19 -18 -16 -22 -18
-4 -6 3 -16 -17 -16 -24 -18
2 -3 2 -17 -17 -17 -24 -18
-12 -1 8 -11 -9 -5 -13 -8
-34 -5 10 -8 -12 -10 -16 -9
-17 -6 4 -15 -18 -18 -22 -13
-16 -7 1 -17 -20 -17 -21 -14
-16 -7 3 -15 -19 -16 -22 -14
-11 -9 -3 -20 -23 -24 -28 -19
6 0 -5 -21 -19 -18 -25 -17
6 9 -1 -14 -11 -9 -18 -12
1 8 1 -11 -6 -3 -14 -8
3 7 0 -14 -8 -4 -14 -8
1 4 2 -11 -3 4 -8 -3
-21 -4 1 -11 -7 -2 -14 -7
-16 -7 -3 -17 -14 -11 -18 -10
-10 -1 -1 -17 -14 -9 -16 -8
-14 -2 0 -16 -15 -10 -18 -9
-4 -5 -7 -22 -23 -19 -28 -16
16 -1 -10 -25 -21 -16 -25 -16
9 4 -2 -18 -15 -8 -20 -11
4 4 -1 -16 -13 -5 -19 -10
4 0 -2 -17 -14 -5 -20 -11
3 4 2 -13 -5 4 -11 -4
-17 -3 4 -11 -9 0 -14 -5
-10 -13 -4 -19 -20 -13 -24 -11
-5 -15 -9 -24 -25 -17 -26 -14
-9 -13 -8 -24 -27 -18 -29 -15
-3 -16 -13 -29 -34 -29 -38 -21
10 -14 -17 -33 -33 -26 -37 -21
1 -12 -10 -26 -26 -18 -32 -17
-2 -10 -9 -25 -25 -16 -31 -15
2 -9 -11 -28 -26 -17 -32 -17
1 -3 -6 -22 -19 -6 -22 -9
-17 -8 -3 -20 -22 -10 -25 -12
-9 -8 -6 -24 -26 -17 -30 -14
-7 -10 -5 -24 -26 -19 -30 -17
-10 -13 -5 -24 -27 -20 -34 -19
-11 -15 -9 -29 -34 -30 -45 -26
-2 -13 -9 -30 -32 -28 -44 -27
-16 -16 -3 -25 -26 -20 -39 -24
-20 -18 -4 -26 -27 -20 -39 -25
-10 -14 -3 -24 -24 -17 -38 -23
-14 -15 -1 -25 -20 -10 -31 -18
-29 -19 -1 -23 -24 -14 -35 -19
-11 -15 -5 -28 -28 -18 -37 -20
-7 -14 -4 -28 -27 -17 -34 -19
-15 -18 -3 -27 -27 -18 -36 -19
-14 -22 -9 -30 -34 -27 -44 -25
-2 -17 -9 -32 -31 -24 -43 -25
-7 -14 -5 -27 -25 -17 -38 -22
-17 -18 -4 -26 -24 -16 -39 -22
-10 -17 -2 -23 -23 -14 -37 -21
-5 -8 4 -19 -14 -3 -27 -13
-19 -11 3 -17 -16 -8 -30 -15
-10 -17 -2 -23 -22 -15 -35 -18
-6 -18 -4 -25 -24 -16 -35 -19
-16 -20 -3 -24 -25 -18 -37 -21
-14 -26 -3 -22 -31 -27 -44 -28
-7 -26 4 -16 -28 -26 -46 -31
-13 -29 13 -3 -23 -24 -48 -35
-23 -35 24 12 -14 -18 -47 -33
-28 -38 31 25 -7 -16 -48 -35
-25 -25 46 47 14 1 -34 -24
-36 -9 63 77 36 12 -25 -16
-15 11 84 107 60 26 -16 -7
5 29 101 130 83 43 -4 2
4 32 100 135 103 58 7 9
15 42 80 119 113 70 18 18
36 64 43 81 126 95 42 38
31 80 22 72 162 138 74 65
41 99 4 77 204 186 111 96
55 122 -16 74 245 232 145 126
65 145 -32 77 293 286 188 160
72 162 -63 82 329 331 218 187
104 189 -106 68 361 373 252 218
125 223 -147 47 393 416 292 254
129 249 -191 15 398 440 324 286
123 255 -229 -36 368 426 326 297
132 231 -244 -80 312 391 307 285
120 192 -245 -115 238 341 275 263
96 157 -252 -162 153 275 240 240
85 131 -259 -225 47 191 195 210
72 113 -263 -292 -73 100 153 184
49 92 -255 -310 -148 31 113 155
56 72 -241 -289 -161 -3 82 129
53 56 -215 -258 -151 -16 61 105
44 39 -188 -223 -135 -19 45 86
44 24 -166 -197 -128 -28 25 66
55 22 -147 -174 -112 -22 22 59
51 24 -124 -147 -91 -12 19 53
39 19 -106 -123 -78 -8 12 44
28 13 -88 -103 -64 -7 8 38
20 13 -71 -90 -52 -1 10 35
-5 6 -53 -73 -48 -7 -3 21
0 0 -43 -62 -47 -13 -10 12
6 -3 -35 -51 -39 -12 -14 6
1 -5 -25 -38 -33 -10 -16 4
8 -5 -22 -33 -34 -15 -22 -1
22 0 -17 -27 -25 -9 -17 0
12 3 -7 -19 -15 0 -14 -1
-4 -5 -1 -13 -13 3 -13 -1
-8 -7 2 -11 -12 1 -14 -2
-8 -7 9 -6 -5 11 -6 2
-25 -14 12 -2 -7 4 -14 -2
-19 -19 7 -6 -14 -5 -22 -9
-18 -14 10 -1 -10 0 -19 -5
-28 -15 12 3 -9 -2 -23 -8
-13 -12 8 0 -16 -15 -33 -15
4 -9 8 -2 -14 -10 -28 -13
-4 -8 12 3 -9 -6 -24 -13
2 -1 15 5 -5 -1 -21 -11
5 -1 18 7 -3 1 -19 -8
3 2 25 14 6 11 -10 -1
-14 -3 25 15 4 7 -13 -5
-8 -10 21 10 -4 -1 -19 -9
-3 -8 20 12 -2 -2 -19 -10
-7 -12 22 16 -3 -3 -23 -12
-6 -16 17 10 -10 -13 -31 -18
8 -13 16 9 -8 -8 -28 -16
-5 -12 20 13 -1 -1 -23 -12
-10 -11 22 14 1 2 -22 -12
-6 -8 22 15 2 3 -20 -12
-8 -7 27 20 8 12 -12 -6
-19 -7 30 25 8 10 -14 -6
-4 -6 27 21 4 6 -15 -8
-5 -5 26 20 5 4 -16 -9
-6 -5 28 23 6 4 -17 -9
-2 -8 22 18 -3 -7 -27 -17
10 -8 20 16 -2 -4 -25 -18
7 -4 22 19 4 1 -22 -16
-5 -7 24 20 5 3 -21 -15
-12 -9 26 23 7 5 -19 -12
-9 -2 34 30 16 18 -8 -4
-19 -1 35 34 15 14 -11 -5
-5 -4 29 28 10 9 -14 -8
-3 -8 26 26 11 8 -15 -9
-4 -9 26 29 10 7 -17 -10
3 -6 22 27 4 -1 -23 -14
5 -4 24 28 9 4 -17 -11
1 1 32 36 17 14 -11 -5
-1 3 34 39 20 17 -9 -4
-7 -2 35 38 18 15 -11 -4
-12 -3 38 41 24 22 -3 0
-28 -10 39 43 22 18 -8 -4
-12 -9 34 38 15 11 -13 -8
1 -5 33 42 19 13 -11 -6
5 -1 35 46 20 14 -11 -5
5 -1 32 44 17 10 -16 -9
9 -2 33 45 23 17 -9 -5
4 1 37 51 31 25 -3 0
3 5 40 54 33 28 -2 1
-3 2 42 55 33 27 -3 2
-8 5 44 57 39 34 5 6
-21 1 45 60 38 31 2 5
-11 0 43 61 33 25 -2 3
2 0 41 62 35 26 -1 4
1 4 43 61 35 25 -1 3
8 8 41 62 30 18 -6 -3
19 10 40 62 34 26 -1 2
12 9 42 66 40 34 4 3
11 16 47 71 43 38 6 7
6 17 51 76 48 41 10 12
1 19 56 79 54 48 15 15
-13 10 55 81 51 44 10 10
-6 9 51 81 50 39 6 9
-6 6 50 81 50 38 5 7
-10 5 51 85 49 37 5 6
3 7 50 86 45 32 1 3
22 14 48 85 48 38 6 6
13 18 52 91 57 46 13 10
5 16 54 95 58 48 13 11
7 14 55 96 60 51 14 12
2 18 59 100 68 58 21 18
-11 24 63 106 69 57 19 18
-1 22 60 103 64 51 16 16
2 21 59 105 65 52 15 16
-2 19 60 107 63 50 12 14
0 15 54 106 59 44 6 9
16 25 56 109 65 52 14 15
18 31 61 112 74 62 23 19
9 25 62 115 76 64 23 19
7 27 64 116 79 67 26 21
11 33 69 118 85 76 35 28
0 33 70 122 85 73 31 26
14 35 66 118 79 66 25 22
16 29 64 117 77 64 24 21
10 28 62 117 76 60 19 18
14 29 57 113 70 52 14 13
18 30 56 112 74 58 19 18
7 26 60 116 79 68 26 23
4 27 61 116 79 69 28 24
4 27 59 112 77 66 26 23
6 36 66 116 86 77 37 33
-6 32 68 118 85 75 36 32
8 34 63 112 78 65 30 28
17 39 61 111 77 65 30 28
13 34 59 108 73 61 25 24
12 27 51 102 64 51 15 16
24 34 48 96 65 52 18 18
12 36 52 98 69 59 23 20
7 35 52 97 69 58 22 19
8 30 48 92 66 56 19 19
3 31 53 92 71 64 29 26
-14 28 53 92 68 61 27 24
-5 22 46 83 61 52 20 19
8 29 42 78 58 51 19 19
7 35 43 77 56 48 20 20
3 34 37 70 48 39 12 16
14 34 33 63 48 40 14 16
2 29 34 59 49 42 15 16
-16 21 31 55 45 39 12 13
-12 23 30 52 44 38 12 14
-7 25 33 52 46 45 20 19
-16 26 34 52 45 43 19 20
-4 30 30 45 40 36 15 17
5 28 24 38 35 30 11 14
1 22 20 32 29 27 6 10
8 18 14 25 20 17 -1 3
13 16 11 20 18 17 1 4
1 15 12 19 20 22 5 6
-11 13 13 18 18 21 4 7
-9 15 11 14 15 17 2 5
-15 13 16 16 21 26 9 10
-22 16 19 17 17 21 5 8
-2 22 15 12 12 16 3 8
-2 19 13 9 13 16 2 7
-12 13 10 6 10 12 -2 2
-1 8 4 1 1 0 -10 -3
11 7 0 -5 -2 1 -7 -3
-3 2 3 -2 1 8 -3 -1
-14 -1 4 -2 1 7 -4 0
-18 -3 4 -3 -1 3 -7 -2
-16 4 8 -1 4 11 1 5
-23 4 10 1 1 6 -3 2
-13 2 4 -5 -7 -4 -12 -6
-13 -3 1 -9 -11 -6 -14 -8
-20 -11 -4 -13 -17 -11 -19 -14
-11 -14 -9 -18 -23 -18 -27 -19
2 -7 -10 -19 -21 -14 -22 -16
-5 1 -4 -15 -17 -8 -18 -12
-8 1 -1 -13 -15 -5 -16 -9
-6 2 -2 -13 -16 -8 -17 -10
-12 2 2 -10 -9 -1 -10 -5
-23 0 3 -10 -11 -5 -14 -7
-17 1 -1 -14 -18 -12 -20 -10
-13 -1 -5 -17 -19 -14 -20 -15
-9 -5 -5 -17 -21 -14 -22 -15
-1 -7 -11 -22 -30 -25 -31 -22
8 -1 -10 -21 -24 -17 -23 -16
-7 -1 -6 -17 -19 -10 -18 -13
-12 -3 -4 -16 -18 -8 -17 -12
-5 -3 -4 -17 -17 -8 -15 -13
-5 0 0 -14 -11 1 -7 -7
-19 -1 3 -11 -13 -4 -10 -9
-14 -4 -4 -18 -18 -12 -16 -13
-9 -3 -7 -18 -20 -14 -19 -15
-9 -1 -7 -17 -21 -15 -20 -16
-7 -5 -11 -20 -26 -23 -28 -20
3 -3 -12 -22 -24 -18 -23 -16
3 -2 -8 -18 -19 -12 -17 -13
3 1 -6 -18 -20 -11 -17 -12
4 -2 -7 -20 -21 -12 -19 -14
-2 -6 -3 -16 -14 -3 -10 -8
-21 -12 -1 -14 -18 -7 -14 -11
-7 -1 -2 -13 -19 -11 -14 -9
1 8 -2 -13 -18 -11 -15 -9
-5 5 -3 -14 -21 -14 -18 -13
-4 0 -8 -19 -27 -22 -26 -19
-1 -6 -11 -21 -29 -22 -27 -20
-8 -7 -9 -20 -27 -20 -27 -21
-8 -5 -7 -19 -25 -17 -25 -19
-7 -2 -3 -16 -21 -14 -21 -15
-2 1 1 -14 -15 -5 -13 -11
-10 3 5 -6 -13 -5 -14 -10
-9 -2 2 -9 -17 -12 -18 -14
-9 -9 -2 -15 -20 -16 -20 -17
-17 -15 -3 -14 -23 -19 -23 -19
-15 -12 -8 -18 -29 -26 -29 -22
4 -2 -9 -20 -28 -24 -27 -21
-7 -5 -6 -18 -24 -19 -26 -20
-14 -6 -2 -15 -21 -16 -23 -18
-7 -1 0 -12 -20 -14 -22 -16
-5 0 2 -10 -13 -6 -13 -12
-16 -3 4 -7 -13 -7 -15 -13
-3 2 1 -10 -17 -13 -18 -15
2 0 -1 -12 -17 -13 -17 -15
2 2 4 -7 -13 -10 -15 -14
11 4 0 -10 -21 -19 -23 -19
15 2 -4 -14 -22 -17 -19 -18
0 -1 -3 -12 -20 -14 -19 -17
-6 0 0 -9 -19 -12 -18 -15
-8 -4 0 -10 -19 -13 -20 -15
-10 -3 3 -8 -13 -5 -13 -11
-19 -2 9 -3 -12 -5 -14 -11
-11 -6 5 -7 -17 -11 -16 -14
-4 -7 1 -11 -20 -16 -19 -16
-3 -11 0 -11 -21 -17 -21 -17
-3 -14 -7 -16 -30 -25 -29 -25
7 -10 -7 -18 -26 -22 -23 -22
2 -7 -5 -15 -23 -17 -22 -20
-2 -6 -3 -14 -22 -16 -22 -19
4 -1 0 -11 -19 -15 -20 -16
1 -4 4 -9 -14 -7 -14 -12
-24 -13 6 -6 -15 -11 -19 -17
-22 -16 5 -10 -18 -16 -21 -20
-18 -17 2 -12 -20 -18 -23 -22
-14 -15 0 -13 -22 -20 -24 -26
-13 -20 -4 -16 -26 -25 -29 -29
-4 -16 -6 -18 -26 -23 -28 -27
-3 -4 -1 -13 -20 -15 -23 -21
-5 -6 0 -13 -21 -18 -25 -22
-5 -7 1 -12 -22 -19 -27 -22
-12 -11 2 -12 -18 -13 -21 -19
-26 -15 6 -8 -19 -16 -23 -20
-18 -15 0 -13 -25 -22 -30 -24
-7 -9 -3 -15 -26 -24 -29 -25
-2 -9 -1 -13 -24 -25 -28 -24
-2 -16 -6 -16 -30 -30 -33 -27
3 -17 -11 -23 -33 -31 -31 -28
-5 -19 -8 -20 -31 -26 -29 -26
-4 -14 -6 -18 -27 -22 -24 -23
2 -8 -4 -17 -27 -21 -24 -21
5 -2 0 -13 -20 -12 -16 -16
-12 -6 4 -10 -18 -13 -17 -16
-4 -1 0 -12 -24 -21 -24 -19
5 -1 -1 -13 -24 -22 -23 -22
-4 -12 -4 -16 -27 -27 -27 -25
-7 -16 -8 -21 -34 -33 -34 -29
11 -7 -11 -21 -32 -30 -29 -25
8 -2 -7 -18 -26 -23 -24 -22
4 -4 -4 -16 -25 -21 -22 -22
2 -7 -5 -16 -26 -21 -22 -23
0 -7 -1 -13 -18 -13 -14 -16
-12 -14 0 -14 -21 -15 -19 -20
-6 -16 -5 -20 -29 -24 -28 -27
-1 -12 -7 -22 -29 -26 -28 -27
-4 -17 -8 -21 -30 -28 -30 -28
-3 -20 -14 -26 -40 -39 -39 -35
6 -13 -12 -26 -38 -36 -35 -31
5 -9 -9 -22 -33 -29 -30 -29
4 -5 -7 -21 -30 -27 -30 -27
2 -7 -4 -19 -28 -24 -25 -24
-1 -8 -2 -14 -22 -15 -18 -18
-15 -13 0 -15 -23 -20 -22 -22
-4 -15 -6 -22 -29 -29 -27 -26
-1 -12 -8 -20 -33 -32 -28 -28
-5 -13 -7 -21 -34 -32 -30 -28
-6 -16 -9 -23 -38 -38 -35 -31
-2 -14 -12 -24 -39 -38 -34 -31
-4 -15 -9 -22 -36 -32 -31 -28
-8 -17 -8 -23 -36 -30 -30 -28
-9 -19 -7 -22 -34 -30 -29 -28
-9 -16 -6 -21 -28 -22 -22 -23
-21 -18 -3 -17 -28 -25 -23 -25
-12 -19 -8 -22 -33 -30 -26 -28
-7 -21 -10 -24 -34 -30 -26 -28
-6 -21 -12 -25 -37 -33 -30 -30
4 -20 -16 -28 -43 -41 -35 -34
15 -14 -15 -28 -40 -37 -31 -30
5 -13 -12 -26 -37 -34 -29 -28
-2 -15 -10 -24 -34 -31 -25 -26
-3 -18 -7 -23 -34 -30 -26 -26
-3 -21 -7 -23 -29 -23 -19 -22
-15 -21 -5 -21 -30 -26 -22 -24
-7 -20 -8 -24 -34 -31 -23 -26
-2 -17 -9 -24 -34 -29 -21 -25
-6 -15 -8 -22 -33 -29 -21 -25
-3 -18 -12 -27 -41 -38 -29 -30
5 -21 -16 -30 -41 -37 -28 -30
-3 -23 -13 -27 -39 -33 -27 -30
-5 -18 -9 -24 -35 -31 -25 -28
-5 -17 -9 -24 -35 -32 -27 -30
-8 -15 -7 -22 -32 -28 -24 -26
-22 -20 -5 -20 -33 -31 -26 -28
-12 -19 -10 -24 -38 -37 -30 -31
2 -13 -10 -25 -37 -36 -28 -31
5 -10 -10 -24 -36 -35 -27 -30
5 -15 -15 -28 -44 -44 -34 -35
10 -19 -16 -30 -44 -41 -31 -33
5 -15 -10 -24 -39 -36 -28 -30
3 -13 -8 -22 -37 -36 -28 -30
4 -17 -10 -26 -39 -38 -29 -32
-1 -19 -10 -26 -35 -33 -26 -29
-17 -21 -8 -23 -36 -35 -28 -31
-15 -25 -14 -28 -39 -40 -31 -34
-13 -20 -9 -23 -35 -32 -25 -29
-17 -20 -6 -20 -33 -31 -23 -29
-8 -21 -12 -25 -41 -43 -31 -35
12 -16 -14 -27 -40 -40 -27 -31
6 -14 -11 -25 -37 -34 -23 -28
0 -20 -12 -27 -38 -36 -25 -30
7 -14 -10 -25 -37 -36 -25 -30
10 -11 -8 -23 -34 -30 -21 -28
-12 -20 -7 -21 -35 -35 -26 -31
-4 -19 -10 -24 -37 -38 -28 -32
3 -13 -10 -23 -37 -37 -27 -30
1 -13 -9 -22 -36 -36 -25 -30
4 -18 -14 -27 -43 -43 -29 -34
10 -17 -16 -28 -43 -41 -26 -30
8 -17 -14 -29 -40 -35 -22 -28
10 -17 -14 -28 -38 -34 -22 -28
7 -16 -11 -25 -36 -34 -20 -27
8 -11 -7 -21 -29 -26 -12 -21
-6 -12 -3 -17 -28 -29 -15 -24
0 -11 -5 -18 -31 -34 -19 -29
5 -9 -7 -20 -31 -34 -18 -29
-4 -12 -8 -20 -33 -36 -22 -31
-1 -14 -10 -22 -38 -43 -29 -34
11 -13 -10 -22 -36 -39 -24 -31
9 -11 -7 -20 -33 -35 -22 -27
10 -10 -9 -22 -33 -34 -20 -27
6 -14 -10 -22 -34 -35 -21 -28
7 -6 -4 -17 -26 -25 -11 -20
-12 -7 0 -14 -25 -26 -12 -21
-4 -7 -4 -16 -27 -32 -18 -24
8 -2 -7 -18 -29 -32 -18 -25
6 -6 -12 -20 -30 -36 -20 -28
11 -1 -16 -21 -34 -42 -26 -29
29 3 -19 -22 -33 -38 -22 -27
16 -1 -17 -21 -31 -33 -18 -24
9 -6 -16 -20 -29 -31 -16 -22
9 -7 -16 -21 -29 -31 -16 -23
10 -7 -12 -20 -26 -26 -10 -21
1 -9 -10 -18 -27 -28 -13 -25
13 -5 -9 -19 -27 -30 -12 -24
15 -5 -10 -21 -29 -31 -14 -24
10 -14 -13 -23 -32 -34 -18 -28
11 -17 -17 -26 -40 -44 -24 -31
27 -4 -14 -24 -36 -37 -19 -27
23 -3 -12 -20 -32 -32 -15 -24
17 -5 -11 -18 -30 -30 -12 -22
20 -7 -13 -20 -31 -30 -12 -23
16 -11 -15 -22 -30 -29 -8 -20
3 -19 -15 -22 -33 -33 -11 -22
12 -21 -18 -26 -38 -37 -14 -25
15 -19 -21 -31 -40 -39 -16 -26
11 -21 -23 -31 -41 -42 -19 -29
13 -25 -26 -35 -48 -49 -25 -33
18 -24 -26 -36 -49 -49 -25 -33
13 -24 -22 -32 -45 -42 -21 -29
12 -15 -17 -27 -40 -39 -18 -28
13 -13 -15 -24 -40 -41 -18 -29
8 -16 -15 -25 -38 -39 -16 -30
-13 -28 -11 -23 -38 -41 -20 -34
-2 -28 -13 -25 -40 -44 -23 -35
10 -19 -12 -24 -39 -41 -19 -33
6 -18 -10 -24 -39 -43 -21 -34
8 -23 -15 -29 -46 -51 -27 -37
12 -31 -23 -36 -52 -55 -31 -41
3 -32 -21 -35 -50 -53 -29 -39
0 -29 -19 -32 -49 -52 -28 -39
-1 -29 -19 -32 -49 -52 -28 -39
4 -20 -14 -28 -42 -44 -21 -33
-2 -23 -13 -27 -42 -46 -24 -35
1 -28 -16 -30 -45 -51 -28 -39
5 -30 -17 -30 -45 -50 -26 -39
3 -31 -19 -32 -48 -52 -27 -41
11 -26 -20 -32 -50 -56 -29 -41
26 -19 -18 -30 -45 -48 -21 -34
11 -20 -15 -28 -42 -43 -18 -30
10 -17 -13 -26 -41 -42 -18 -32
13 -17 -13 -26 -42 -42 -19 -32
8 -18 -11 -24 -36 -37 -15 -29
-5 -24 -9 -21 -37 -41 -18 -34
-3 -33 -14 -24 -42 -48 -25 -39
-2 -34 -10 -21 -43 -49 -27 -41
-6 -37 0 -11 -40 -50 -28 -44
-6 -42 4 -1 -40 -55 -37 -49
17 -34 11 11 -32 -47 -33 -45
11 -33 18 23 -20 -39 -28 -43
9 -22 28 38 -3 -29 -21 -38
11 -11 42 65 20 -16 -11 -30
11 -2 63 101 49 5 4 -19
5 7 86 134 77 21 14 -12
14 12 87 141 96 38 25 -4
20 20 72 128 112 57 41 9
30 39 40 97 123 80 62 30
49 62 8 80 151 118 93 56
76 88 -15 77 193 171 135 92
82 104 -35 72 238 225 174 125
89 125 -49 74 286 279 214 156
100 149 -77 67 329 331 254 191
116 181 -111 50 369 380 297 230
118 213 -150 20 393 411 328 260
136 251 -187 -22 391 422 349 284
127 244 -216 -71 358 401 344 286
109 202 -228 -105 292 352 309 264
105 166 -239 -144 202 282 267 236
110 141 -249 -195 105 209 230 213
99 121 -251 -250 -12 123 187 186
81 93 -259 -310 -147 20 134 150
73 70 -248 -307 -195 -33 99 123
74 62 -223 -273 -183 -42 83 106
52 45 -193 -236 -162 -47 63 86
49 30 -176 -213 -150 -56 44 63
49 19 -155 -188 -139 -56 35 51
39 7 -134 -162 -126 -57 25 40
33 -7 -123 -144 -121 -62 10 23
33 -11 -111 -132 -111 -59 6 17
29 -3 -94 -109 -94 -49 6 15
22 -6 -76 -90 -80 -41 5 9
14 -12 -65 -78 -75 -43 -1 -1
18 -8 -52 -67 -65 -37 2 -1
14 -6 -40 -52 -54 -34 0 -5
19 -8 -32 -40 -44 -32 1 -5
19 -10 -23 -28 -35 -27 3 -4
11 -17 -18 -23 -32 -28 0 -8
8 -20 -16 -20 -33 -32 -7 -14
20 -10 -12 -17 -29 -28 -3 -11
12 -13 -9 -15 -28 -25 -3 -11
1 -18 -5 -12 -27 -26 -4 -13
3 -17 -2 -8 -26 -25 -5 -13
2 -13 5 -1 -18 -18 1 -6
-8 -16 6 2 -16 -21 -3 -11
7 -11 2 -1 -20 -26 -7 -16
14 -8 2 0 -18 -25 -7 -17
8 -14 3 0 -18 -26 -7 -18
1 -20 1 -1 -23 -32 -14 -23
9 -15 2 -1 -22 -29 -12 -19
5 -14 5 2 -19 -24 -9 -16
-1 -17 7 3 -18 -23 -10 -17
-4 -16 9 6 -16 -23 -9 -15
-3 -14 12 11 -11 -16 -3 -13
-15 -19 15 15 -10 -18 -7 -15
-4 -20 12 12 -10 -20 -7 -16
1 -19 10 11 -10 -21 -7 -18
4 -18 8 9 -13 -24 -10 -20
11 -21 4 6 -17 -27 -14 -23
16 -16 5 6 -14 -23 -9 -18
7 -14 8 9 -10 -17 -6 -16
-1 -17 11 11 -9 -17 -5 -14
-8 -19 11 13 -9 -18 -6 -14
-8 -17 15 16 -3 -11 1 -10
-25 -28 17 20 -3 -12 -1 -12
-15 -31 13 16 -6 -17 -6 -17
-7 -28 11 17 -6 -17 -4 -18
-1 -19 13 18 -4 -16 -4 -17
14 -8 14 20 -4 -16 -5 -15
28 -2 12 18 -4 -13 -1 -12
18 -5 17 21 2 -6 4 -8
0 -17 18 22 2 -5 4 -9
-5 -23 14 19 -3 -10 0 -12
7 -9 22 28 7 -1 8 -5
-7 -14 24 32 10 -2 5 -6
-10 -22 19 29 5 -9 -2 -12
1 -13 19 29 5 -10 -2 -11
6 -11 21 30 7 -8 -1 -11
8 -12 18 28 2 -13 -4 -12
13 -11 16 25 3 -9 -2 -10
1 -16 19 28 8 -3 3 -5
2 -10 22 33 11 0 6 -4
5 -7 22 34 10 0 5 -3
2 -6 26 39 16 4 9 -1
-8 -13 26 42 16 2 7 -3
-6 -17 19 38 12 -4 1 -9
-2 -13 22 42 16 0 3 -7
2 -5 27 45 20 2 4 -7
4 -7 23 43 16 -2 -1 -9
10 -15 21 41 15 2 3 -7
9 -15 25 45 21 9 7 -2
6 -11 27 48 22 10 9 -2
10 -3 31 53 27 14 14 2
15 2 33 57 34 22 21 9
6 -3 33 60 34 18 18 5
9 -3 28 57 29 13 14 -1
3 -5 27 58 31 13 12 -1
2 -5 32 63 35 16 14 2
9 1 30 61 31 12 10 -1
17 6 31 63 34 18 15 4
16 8 36 68 41 26 22 12
16 9 38 72 43 29 24 12
15 9 39 76 45 31 25 13
19 12 43 80 50 38 33 19
7 6 43 85 52 36 30 16
11 3 39 82 50 33 27 13
9 -1 38 82 49 34 27 11
0 -4 38 83 49 32 24 10
9 0 36 83 49 29 20 7
28 9 35 86 51 32 23 9
22 10 39 89 54 36 26 13
15 10 42 92 58 39 27 14
10 15 49 100 64 46 33 21
13 18 54 106 72 55 42 26
3 13 55 111 75 55 41 25
7 12 51 108 72 50 39 21
13 16 50 106 73 50 38 21
9 18 51 109 73 51 38 22
12 19 51 110 72 49 35 21
20 20 49 110 73 51 37 23
15 17 49 109 72 53 36 23
8 14 50 112 75 54 37 23
8 16 52 113 75 55 39 24
11 20 56 117 82 64 46 30
3 16 58 120 85 65 46 29
7 13 52 115 79 57 41 23
12 15 50 113 77 57 38 22
12 15 49 112 78 57 39 23
14 15 47 108 74 53 36 20
19 21 47 108 76 55 39 24
19 23 50 109 78 59 42 27
10 19 51 111 78 58 42 28
9 20 51 109 76 57 41 29
10 19 52 109 77 59 45 31
4 18 52 109 76 57 44 30
14 20 48 104 73 53 41 28
15 21 45 99 71 51 38 25
13 18 42 95 69 49 37 24
13 17 39 91 64 45 35 22
16 24 38 89 66 46 38 25
8 22 40 87 67 51 41 28
3 18 39 85 63 48 39 27
8 23 39 83 61 46 39 27
5 20 38 79 60 47 41 28
-9 16 36 77 57 41 35 23
-3 16 31 71 51 33 31 19
-4 17 29 66 51 33 30 20
-6 18 29 61 49 32 29 20
9 22 25 55 43 28 25 18
16 21 22 49 41 28 27 19
11 23 23 46 40 29 28 20
-2 14 23 45 40 29 28 21
-12 7 19 38 33 22 23 17
-14 3 19 36 32 24 26 20
-23 1 17 33 28 18 21 15
-16 5 12 28 22 11 15 11
-13 7 9 24 20 11 14 10
-18 -1 6 18 15 5 10 6
-10 2 3 12 9 0 4 3
5 12 5 12 11 5 10 8
3 15 8 13 13 7 13 10
6 11 6 10 10 5 10 8
2 2 1 2 4 0 7 3
-6 1 4 4 7 4 15 8
-18 -1 6 7 7 3 13 7
-17 -10 1 0 -1 -6 6 0
-14 -5 3 2 1 -6 7 1
-17 -1 3 0 0 -7 5 0
-17 -5 -2 -6 -6 -15 -2 -5
-3 -2 -4 -9 -7 -12 1 -2
-7 -5 -4 -10 -8 -11 1 -1
-4 0 -2 -8 -9 -11 1 -1
-1 0 -1 -9 -9 -10 3 -2
-14 -9 -1 -9 -8 -8 6 0
-26 -11 1 -6 -7 -9 4 -1
-16 -5 -1 -8 -11 -14 1 -3
-12 -5 -2 -9 -11 -15 1 -4
-9 -6 -4 -11 -14 -17 -4 -6
-13 -12 -8 -15 -19 -23 -9 -11
-12 -14 -9 -18 -21 -24 -9 -10
-11 -13 -7 -16 -19 -20 -8 -7
-12 -9 -4 -14 -17 -18 -6 -5
-11 -6 0 -10 -13 -15 -3 -3
-8 -2 3 -10 -8 -9 5 3
-18 -7 2 -10 -11 -15 1 -2
-10 -5 -2 -13 -15 -19 -2 -4
-10 -7 -5 -16 -16 -22 -3 -6
-15 -7 -5 -16 -18 -22 -4 -5
-11 -9 -8 -20 -22 -27 -11 -10
-8 -11 -11 -23 -23 -27 -12 -10
-18 -9 -8 -21 -20 -23 -10 -9
-21 -5 -3 -17 -18 -19 -7 -6
-12 -8 -3 -18 -19 -22 -10 -9
10 -12 -10 -23 -22 -23 -10 -12
3 -14 -9 -23 -24 -26 -13 -13
6 -17 -14 -26 -29 -32 -18 -17
9 -17 -15 -27 -26 -29 -15 -15
7 -16 -16 -26 -28 -31 -17 -16
12 -14 -17 -28 -31 -37 -20 -19
25 -9 -17 -30 -30 -35 -19 -18
21 -11 -16 -30 -30 -34 -20 -19
17 -13 -16 -29 -31 -34 -22 -21
16 -15 -15 -29 -30 -34 -22 -22
19 -12 -11 -24 -24 -27 -14 -15
12 -9 -7 -20 -22 -26 -12 -13
24 1 -6 -18 -22 -27 -12 -12
23 2 -4 -16 -17 -22 -7 -9
10 -7 -6 -17 -18 -23 -10 -10
7 -14 -11 -25 -26 -31 -18 -18
17 -13 -14 -26 -27 -30 -16 -16
12 -11 -9 -24 -23 -27 -14 -13
12 -7 -8 -22 -23 -27 -14 -14
14 -6 -6 -19 -22 -26 -13 -13
12 -9 -6 -19 -20 -24 -9 -11
-4 -15 -4 -17 -20 -26 -11 -13
0 -18 -8 -19 -23 -29 -14 -15
4 -18 -10 -20 -23 -28 -16 -17
8 -19 -10 -20 -23 -28 -16 -17
14 -16 -11 -21 -25 -30 -19 -18
22 -14 -13 -24 -26 -31 -18 -18
19 -14 -13 -25 -25 -31 -19 -18
15 -11 -11 -22 -26 -32 -20 -18
10 -12 -8 -21 -25 -30 -18 -18
11 -7 -6 -17 -21 -25 -14 -13
-3 -11 -2 -12 -19 -26 -15 -14
-1 -17 -4 -13 -22 -29 -18 -16
2 -18 -6 -16 -24 -30 -18 -18
7 -14 -5 -15 -22 -28 -18 -17
13 -11 -7 -18 -23 -30 -18 -18
26 -5 -10 -21 -25 -30 -19 -17
23 -9 -7 -18 -20 -25 -16 -14
13 -15 -5 -17 -18 -23 -14 -14
11 -14 -3 -15 -19 -22 -13 -14
20 -4 -1 -11 -14 -17 -8 -8
5 -3 3 -8 -12 -19 -8 -9
6 -8 -1 -12 -17 -25 -14 -13
12 -13 -4 -15 -19 -26 -14 -15
12 -12 -5 -15 -21 -28 -16 -17
17 -11 -7 -18 -23 -30 -19 -19
24 -12 -10 -21 -25 -29 -18 -18
16 -15 -8 -21 -23 -28 -18 -17
7 -16 -6 -19 -22 -25 -15 -16
11 -12 -5 -18 -21 -25 -14 -15
18 -7 -3 -15 -18 -20 -9 -12
5 -12 -3 -15 -19 -24 -13 -16
6 -11 -4 -14 -22 -26 -16 -17
8 -11 -3 -15 -22 -26 -15 -18
1 -18 -4 -17 -23 -28 -18 -19
-8 -22 -5 -18 -25 -33 -24 -20
1 -19 -5 -18 -25 -31 -23 -19
16 -2 0 -14 -18 -24 -17 -13
21 4 2 -11 -17 -22 -15 -11
19 -4 -1 -16 -21 -24 -16 -14
18 -4 0 -15 -18 -22 -11 -11
7 -3 3 -9 -16 -19 -10 -10
1 -10 1 -12 -19 -25 -14 -12
-2 -11 1 -13 -19 -24 -14 -13
-7 -12 1 -13 -20 -25 -16 -14
-5 -14 -5 -17 -26 -32 -23 -19
12 -8 -6 -20 -26 -32 -23 -19
12 -11 -6 -19 -25 -29 -22 -19
8 -10 -2 -17 -23 -27 -20 -18
15 -9 -3 -18 -24 -28 -20 -18
8 -15 -3 -18 -21 -24 -16 -14
-7 -16 0 -14 -21 -24 -15 -14
0 -15 0 -15 -21 -25 -15 -15
5 -13 -3 -18 -21 -26 -14 -15
4 -11 -2 -18 -22 -26 -15 -17
2 -15 -4 -20 -25 -30 -20 -19
11 -15 -7 -24 -28 -33 -23 -21
12 -12 -6 -22 -26 -29 -21 -19
5 -14 -4 -21 -26 -27 -21 -19
6 -15 -4 -22 -27 -28 -20 -19
7 -14 -4 -22 -22 -22 -14 -14
-7 -17 -2 -18 -23 -22 -15 -15
-3 -18 -2 -19 -24 -25 -16 -16
2 -16 -2 -20 -22 -24 -13 -14
0 -15 -3 -21 -24 -26 -16 -16
-2 -19 -6 -25 -29 -31 -22 -20
-2 -23 -10 -28 -29 -34 -23 -21
-3 -19 -9 -27 -28 -30 -22 -20
2 -17 -6 -25 -28 -29 -23 -20
-6 -26 -8 -27 -31 -34 -25 -22
-5 -19 -4 -23 -25 -27 -19 -16
-8 -10 0 -17 -23 -25 -18 -14
-3 -11 -3 -21 -26 -30 -22 -18
3 -12 -3 -21 -25 -27 -18 -16
-1 -13 -3 -20 -27 -29 -20 -18
4 -8 -5 -22 -28 -32 -23 -20
16 -8 -4 -25 -28 -30 -21 -18
11 -9 -3 -23 -26 -28 -22 -17
5 -12 -3 -24 -29 -29 -23 -18
4 -14 -5 -24 -30 -31 -25 -20
-2 -18 -5 -25 -29 -29 -22 -19
-17 -23 -4 -23 -29 -29 -21 -18
-17 -24 -3 -23 -29 -32 -22 -19
-5 -19 -5 -25 -29 -31 -22 -18
-9 -23 -5 -27 -30 -31 -22 -19
-15 -23 -5 -25 -31 -33 -23 -20
2 -14 -5 -27 -28 -30 -21 -18
12 -14 -7 -28 -28 -29 -21 -19
8 -12 -3 -24 -27 -27 -17 -18
14 -5 -2 -23 -25 -25 -17 -16
11 -10 -3 -24 -26 -25 -16 -15
-7 -15 0 -20 -24 -25 -17 -14
-5 -14 -1 -22 -25 -28 -18 -14
0 -13 -3 -23 -25 -29 -18 -14
4 -9 -1 -22 -25 -27 -16 -14
0 -10 -3 -24 -28 -31 -19 -15
8 -14 -5 -28 -28 -32 -22 -17
14 -12 -7 -30 -29 -29 -21 -18
13 -3 -2 -23 -25 -24 -17 -14
11 -2 0 -19 -24 -23 -15 -11
2 -10 0 -21 -22 -19 -12 -10
-13 -15 -1 -21 -26 -24 -16 -14
-12 -21 -3 -23 -28 -27 -18 -15
-11 -20 -6 -26 -29 -29 -19 -16
-15 -22 -5 -27 -31 -33 -23 -19
-10 -23 -6 -27 -32 -36 -26 -20
2 -17 -5 -28 -30 -34 -24 -18
0 -17 -4 -27 -27 -30 -22 -17
-3 -19 -2 -24 -27 -28 -20 -16
1 -13 -2 -24 -26 -27 -19 -15
5 -10 0 -22 -23 -22 -14 -12
-10 -15 1 -20 -24 -24 -17 -13
-6 -18 -4 -25 -30 -31 -22 -18
-9 -21 -7 -27 -32 -31 -23 -19
-14 -23 -4 -25 -31 -32 -23 -21
-2 -14 -3 -24 -31 -34 -25 -20
9 -10 -3 -25 -28 -31 -23 -18
4 -13 -4 -28 -28 -32 -26 -19
4 -13 0 -26 -25 -28 -21 -17
7 -7 2 -23 -24 -26 -19 -16
10 -4 4 -20 -19 -21 -14 -10
-6 -6 6 -16 -17 -18 -11 -8
-4 -10 2 -21 -22 -23 -15 -11
1 -8 2 -21 -22 -24 -16 -12
-5 -12 1 -21 -22 -26 -18 -12
-7 -17 -2 -25 -28 -32 -25 -18
6 -15 -3 -27 -27 -30 -25 -18
2 -15 -1 -25 -25 -28 -23 -17
7 -13 -1 -24 -23 -25 -21 -15
5 -10 2 -21 -22 -23 -18 -13
0 -10 5 -19 -18 -19 -12 -8
-12 -12 7 -15 -16 -19 -11 -9
-4 -8 6 -17 -18 -20 -11 -9
1 -6 5 -18 -19 -20 -12 -11
-1 -2 6 -15 -17 -20 -12 -11
2 -1 4 -17 -19 -24 -18 -14
13 -1 2 -22 -20 -25 -19 -15
8 1 4 -20 -18 -22 -18 -13
-7 -4 5 -20 -18 -22 -19 -13
-9 -5 6 -17 -18 -21 -18 -11
0 3 9 -14 -14 -16 -11 -5
-12 1 11 -11 -14 -16 -10 -6
-1 4 8 -14 -15 -18 -11 -6
6 5 8 -16 -14 -18 -10 -6
3 7 6 -17 -14 -20 -12 -7
0 7 2 -18 -14 -21 -14 -7
6 6 -1 -21 -14 -21 -14 -8
5 4 -1 -20 -12 -17 -12 -6
-1 1 -2 -20 -16 -19 -14 -8
-3 -4 -3 -20 -16 -19 -15 -8
-6 -10 -4 -22 -16 -17 -13 -7
-24 -17 -3 -21 -18 -21 -15 -10
-18 -12 -1 -19 -17 -20 -14 -8
-11 -13 -2 -21 -16 -19 -14 -8
-12 -6 2 -17 -14 -17 -11 -6
7 10 5 -15 -11 -16 -12 -3
19 8 1 -21 -14 -18 -13 -4
12 1 0 -21 -14 -16 -13 -5
2 -5 3 -18 -13 -14 -13 -5
0 -6 3 -18 -14 -16 -14 -5
0 -7 3 -18 -13 -13 -10 -4
-7 -8 4 -16 -14 -14 -11 -3
2 -3 3 -16 -17 -16 -12 -4
10 0 3 -17 -15 -14 -9 -2
9 -4 1 -18 -17 -16 -11 -5
8 -11 -5 -26 -26 -26 -19 -11
22 -3 -5 -27 -23 -22 -16 -10
23 -1 -2 -24 -20 -19 -15 -7
14 -4 0 -22 -20 -17 -14 -7
10 -6 1 -19 -20 -18 -14 -7
6 -5 3 -19 -18 -16 -11 -5
-9 -7 7 -17 -16 -15 -11 -4
-11 -11 5 -20 -19 -21 -14 -8
-13 -14 2 -24 -23 -25 -19 -12
-8 -14 1 -24 -24 -28 -23 -17
-6 -19 0 -26 -26 -31 -27 -19
-3 -22 -2 -29 -27 -30 -25 -19
-4 -21 -1 -28 -25 -26 -22 -17
-10 -22 3 -25 -21 -23 -19 -13
-10 -20 3 -25 -23 -23 -20 -14
-8 -17 5 -24 -21 -22 -17 -13
-24 -20 8 -20 -19 -20 -16 -11
-20 -19 7 -21 -20 -22 -16 -10
-15 -17 6 -22 -22 -24 -18 -11
-13 -14 4 -23 -23 -27 -22 -14
-11 -14 2 -24 -23 -29 -26 -16
-3 -14 1 -26 -24 -28 -27 -17
-4 -17 3 -26 -23 -25 -24 -15
-13 -18 4 -24 -20 -22 -21 -14
-14 -17 3 -24 -21 -24 -22 -15
-6 -14 6 -21 -16 -17 -15 -9
-16 -16 10 -16 -14 -15 -14 -7
-10 -11 11 -15 -15 -18 -15 -8
-11 -16 10 -15 -17 -21 -17 -11
-19 -19 15 -9 -17 -25 -23 -16
-17 -25 19 -4 -20 -32 -31 -23
-10 -35 23 4 -19 -33 -35 -29
-7 -36 32 19 -10 -27 -34 -29
-4 -29 41 34 2 -19 -29 -26
-7 -20 52 53 21 -7 -21 -20
-3 -2 74 87 52 15 -5 -5
-4 13 99 122 80 33 9 4
1 22 107 135 98 45 17 10
10 36 102 138 121 68 34 25
10 48 78 114 132 85 49 39
17 63 41 80 147 109 71 58
38 79 16 73 184 152 105 85
52 104 -5 70 222 200 140 114
62 129 -19 70 266 249 178 145
77 150 -43 72 311 300 216 176
101 181 -71 71 355 355 259 214
107 215 -104 60 397 405 304 256
118 244 -148 26 415 435 335 286
124 267 -194 -19 406 442 355 310
116 252 -221 -70 362 415 342 305
110 215 -229 -103 292 360 305 280
112 184 -235 -144 208 300 271 257
103 154 -245 -196 111 226 229 229
78 122 -251 -263 -17 129 178 194
63 95 -257 -314 -136 34 129 161
58 75 -242 -304 -166 -3 103 141
44 58 -214 -268 -156 -19 83 123
34 45 -187 -234 -139 -23 65 104
23 35 -158 -200 -121 -23 53 90
24 24 -136 -176 -110 -24 41 76
27 7 -125 -158 -103 -31 28 59
33 3 -112 -139 -91 -28 21 46
29 7 -91 -115 -76 -22 18 40
23 5 -75 -99 -66 -21 11 32
16 7 -59 -84 -59 -23 5 22
9 8 -43 -68 -46 -15 7 20
-7 1 -27 -50 -37 -14 3 17
4 4 -18 -39 -29 -10 2 16
9 4 -11 -28 -21 -6 1 13
8 -1 -6 -22 -18 -6 -1 10
9 -4 -3 -18 -14 -8 -3 8
12 0 3 -13 -7 -1 2 9
9 2 8 -10 -5 -1 2 9
3 -1 11 -9 -6 -3 -1 7
-2 -3 12 -7 -8 -5 -4 5
-2 -4 16 -3 -3 1 1 9
-19 -10 20 3 -3 -2 -1 8
-18 -12 18 2 -5 -7 -8 2
-9 -8 18 3 -3 -7 -9 0
-11 -9 17 4 -4 -8 -11 -3
-10 -8 17 3 -4 -11 -14 -4
-1 -6 17 0 -2 -8 -12 -4
-2 -8 20 3 -1 -6 -11 -5
-1 -10 19 4 -2 -7 -12 -6
-6 -15 20 5 -3 -9 -15 -8
-3 -8 24 11 0 -2 -9 -3
-10 -6 29 16 4 -1 -7 -1
-15 -12 28 16 3 -5 -11 -3
-16 -12 27 15 3 -5 -12 -5
-16 -11 27 16 3 -4 -12 -6
-12 -12 24 12 0 -11 -18 -10
2 -12 22 10 2 -7 -16 -11
-1 -10 25 14 3 -5 -13 -8
0 -7 26 13 4 -4 -12 -8
4 -6 28 14 4 -3 -11 -7
1 -10 30 16 6 1 -6 -3
-11 -13 33 21 6 1 -7 -3
-8 -14 30 19 5 -2 -9 -5
-15 -10 33 22 10 3 -6 -4
-23 -6 35 27 13 5 -6 -3
-14 -8 30 22 7 -4 -14 -9
3 -8 28 19 8 -2 -13 -9
5 -8 29 20 9 1 -10 -7
2 -7 29 20 7 0 -11 -8
2 -7 31 22 7 0 -10 -7
3 -7 34 27 12 8 -2 0
-9 -10 37 31 13 8 -1 1
-11 -11 36 30 13 7 -1 1
-15 -11 36 34 15 8 -2 0
-14 -11 34 35 14 5 -6 -3
-7 -12 31 30 13 1 -10 -7
0 -10 30 29 13 3 -9 -8
-2 -11 34 32 15 5 -9 -7
-2 -7 35 33 16 6 -8 -6
4 -2 38 36 19 8 -6 -4
9 -2 40 39 23 15 1 2
-8 -10 42 42 23 13 0 2
-11 -11 41 42 23 13 1 3
-14 -10 40 44 25 13 0 1
-12 -8 37 45 24 11 -3 0
-4 -3 38 44 23 7 -6 -2
3 -1 36 44 27 11 -3 -2
-5 -3 40 48 29 13 -2 0
-6 -5 41 49 29 14 -1 1
-7 -2 44 52 31 16 1 2
-4 0 48 57 34 23 6 7
-12 -2 51 61 36 23 6 8
-7 -2 48 61 36 21 5 7
-1 0 50 64 39 25 8 9
-3 -1 50 65 39 26 8 8
-2 -1 47 64 38 22 4 5
8 1 45 64 40 24 6 4
7 7 49 67 41 26 8 6
4 10 51 69 43 28 8 7
2 4 51 71 43 28 8 6
1 4 56 76 47 35 14 12
-9 3 58 83 52 38 16 16
-9 4 57 85 51 36 16 15
1 11 57 87 54 38 18 16
7 16 58 90 56 41 19 17
3 9 54 86 54 36 13 10
8 8 54 87 56 38 16 10
7 13 58 91 59 43 19 13
3 14 59 93 59 43 18 13
6 15 62 96 60 45 18 14
5 13 63 100 63 50 22 17
-9 9 67 105 65 48 20 19
-3 9 63 104 62 45 17 17
-1 7 60 102 62 45 18 16
-2 11 61 104 64 47 21 18
0 17 62 108 68 48 22 20
10 23 63 109 70 52 25 21
20 34 67 113 75 58 29 26
12 27 66 112 74 56 28 25
13 29 68 114 74 56 28 25
14 33 70 117 76 62 33 30
-3 27 71 119 76 59 32 30
0 27 68 117 74 56 28 28
3 26 67 116 74 57 29 27
-2 21 65 115 72 54 26 24
3 26 65 114 73 54 26 25
12 30 64 113 75 57 29 27
11 31 66 113 73 58 30 28
15 34 66 112 74 61 32 28
13 31 66 111 72 59 32 28
12 32 67 111 73 62 35 32
-4 28 68 116 71 59 35 30
-3 27 62 109 68 54 29 28
2 27 59 104 66 51 27 26
2 28 59 102 64 49 25 25
6 32 55 97 61 45 22 21
17 33 51 92 60 47 23 21
13 30 52 91 59 47 25 22
13 32 53 89 59 49 26 23
15 31 51 84 56 48 25 23
10 29 49 80 56 48 27 24
4 28 47 79 53 43 26 24
5 27 45 75 50 40 22 22
2 22 41 70 47 36 20 21
0 23 37 64 43 32 17 18
-2 24 33 58 38 25 12 13
4 32 33 54 39 29 14 15
1 29 33 50 37 28 14 14
-1 24 29 44 33 25 11 12
-2 22 27 40 30 24 11 13
-4 20 27 37 30 27 15 15
-18 11 25 37 27 22 12 14
-9 14 23 33 23 18 9 12
-3 23 21 29 21 15 8 11
0 28 21 28 22 15 7 10
-3 20 17 22 17 9 2 7
-2 15 12 14 13 6 -2 1
0 16 13 11 11 6 -2 0
-2 14 13 12 10 5 -4 -1
-4 12 12 9 7 5 -4 -1
-5 12 14 8 10 9 1 4
-18 7 17 11 9 9 0 6
-10 8 13 7 5 4 -3 4
-7 4 9 3 0 1 -4 2
-11 5 8 0 -1 -2 -6 0
-6 8 6 -2 -5 -7 -10 -2
0 4 0 -9 -10 -10 -15 -9
-3 1 1 -10 -13 -11 -15 -10
-11 -2 3 -11 -12 -11 -15 -10
-12 -2 3 -12 -14 -11 -16 -10
-6 3 5 -9 -10 -8 -9 -5
-17 0 5 -5 -10 -9 -10 -3
-13 -1 4 -8 -11 -11 -12 -5
-6 0 4 -8 -11 -10 -9 -4
-5 -2 4 -11 -12 -12 -12 -5
1 0 0 -13 -17 -16 -16 -9
6 -1 -4 -17 -18 -17 -17 -12
4 -2 -3 -17 -18 -17 -18 -12
-3 -1 -1 -16 -17 -15 -17 -11
-7 -1 3 -14 -19 -15 -15 -10
-7 2 4 -12 -16 -13 -13 -7
-17 -3 3 -12 -18 -15 -15 -7
-17 -7 1 -14 -20 -18 -17 -8
-17 -3 4 -11 -15 -10 -11 -4
-24 -5 5 -8 -15 -11 -12 -4
-18 -7 -1 -14 -21 -20 -19 -11
-3 -1 -5 -21 -21 -20 -18 -12
-10 -4 -1 -20 -21 -19 -16 -11
-12 -4 -1 -22 -24 -20 -19 -13
-12 -4 -1 -20 -23 -20 -19 -13
-17 -9 1 -18 -19 -14 -14 -8
-27 -13 3 -15 -20 -17 -16 -9
-20 -14 -1 -18 -22 -21 -21 -12
-16 -9 -1 -17 -21 -20 -20 -11
-12 -2 0 -18 -20 -19 -19 -10
-10 -3 -4 -20 -24 -26 -26 -15
-5 -8 -5 -20 -25 -24 -23 -16
-6 -7 -1 -20 -21 -18 -18 -13
-9 -6 1 -20 -20 -17 -18 -12
-6 -6 -1 -20 -22 -20 -20 -13
-9 -6 2 -18 -22 -16 -16 -10
-26 -7 3 -13 -22 -19 -17 -10
-21 -6 2 -12 -21 -20 -19 -9
-18 -7 3 -14 -20 -20 -19 -10
-18 -11 0 -16 -22 -21 -21 -13
-15 -14 -2 -18 -24 -25 -23 -16
-6 -11 -4 -21 -24 -23 -22 -16
-3 -4 0 -18 -22 -19 -19 -15
3 3 5 -14 -18 -14 -15 -11
0 2 5 -13 -19 -16 -15 -13
-2 -1 6 -13 -17 -12 -11 -9
-19 -4 8 -9 -17 -14 -13 -9
-15 -4 5 -11 -20 -19 -17 -11
-12 -4 3 -11 -20 -18 -16 -11
-16 -7 2 -13 -20 -21 -18 -13
-17 -12 0 -16 -24 -26 -24 -17
-7 -10 -2 -18 -24 -24 -23 -17
-5 -7 1 -16 -22 -21 -21 -16
-3 -9 1 -16 -21 -20 -20 -15
-8 -13 0 -17 -25 -22 -21 -17
-11 -13 2 -14 -20 -16 -16 -11
-26 -17 5 -12 -19 -18 -17 -10
-18 -9 5 -10 -20 -21 -19 -11
-10 -2 6 -9 -19 -18 -18 -12
-18 -9 4 -12 -22 -22 -22 -15
-21 -14 1 -16 -26 -28 -29 -20
-9 -10 2 -15 -24 -26 -27 -19
-8 -11 3 -13 -24 -24 -26 -19
-10 -10 6 -12 -21 -20 -24 -17
-13 -11 5 -12 -22 -21 -23 -17
-12 -10 7 -9 -17 -15 -17 -12
-15 -4 12 -4 -13 -12 -14 -7
-11 -7 8 -7 -17 -15 -18 -11
-10 -11 5 -9 -19 -17 -19 -15
-12 -12 4 -9 -19 -18 -20 -16
-18 -17 1 -13 -24 -25 -26 -20
-11 -15 1 -14 -24 -25 -26 -22
-9 -11 6 -11 -21 -20 -22 -18
-12 -10 8 -10 -21 -19 -23 -18
-5 -7 7 -10 -21 -20 -23 -18
-6 -10 7 -8 -18 -15 -19 -15
-23 -16 10 -5 -16 -14 -18 -13
-16 -13 7 -7 -17 -16 -19 -13
-13 -11 6 -7 -18 -17 -18 -14
-13 -10 5 -8 -19 -19 -21 -16
-14 -14 4 -11 -23 -24 -24 -18
-10 -12 2 -13 -24 -25 -26 -20
-14 -14 1 -14 -24 -23 -25 -20
-28 -25 1 -16 -25 -23 -27 -22
-24 -19 3 -13 -26 -25 -28 -21
-16 -9 9 -7 -20 -17 -20 -15
-28 -13 10 -6 -20 -18 -22 -15
-17 -9 8 -6 -20 -21 -23 -16
-7 -4 6 -9 -21 -21 -22 -16
-10 -9 4 -11 -24 -24 -25 -18
-12 -20 -1 -16 -29 -30 -29 -22
-7 -15 -1 -17 -28 -28 -27 -21
-12 -12 4 -13 -25 -24 -23 -19
-17 -15 3 -14 -26 -23 -23 -20
-18 -16 3 -15 -26 -25 -25 -21
-18 -19 3 -16 -26 -23 -23 -19
-33 -26 3 -14 -25 -24 -25 -20
-29 -27 0 -16 -27 -27 -28 -22
-21 -22 2 -16 -26 -25 -25 -20
-16 -12 6 -12 -24 -22 -22 -19
-14 -11 2 -16 -27 -27 -26 -20
-3 -9 0 -18 -27 -25 -24 -21
-10 -16 -2 -20 -29 -25 -24 -21
-16 -22 -1 -19 -28 -24 -23 -21
-18 -24 -3 -20 -31 -26 -25 -22
-10 -15 -1 -19 -28 -24 -24 -21
-8 -8 1 -16 -27 -24 -23 -20
-8 -7 1 -15 -26 -25 -23 -19
-6 -5 2 -15 -25 -23 -21 -18
-13 -10 -1 -17 -28 -25 -23 -20
-18 -16 -3 -20 -32 -30 -26 -22
-4 -12 -4 -22 -33 -28 -24 -22
-9 -11 -3 -20 -29 -22 -19 -17
-17 -12 0 -17 -27 -20 -16 -16
-16 -13 1 -17 -27 -21 -17 -15
-24 -17 1 -17 -26 -19 -15 -14
-35 -19 2 -15 -26 -22 -17 -15
-32 -19 1 -16 -27 -24 -20 -17
-25 -16 1 -17 -27 -25 -21 -17
-22 -17 -2 -19 -31 -30 -25 -22
-18 -19 -5 -21 -32 -33 -28 -24
-5 -14 -5 -23 -33 -32 -27 -24
-5 -12 -3 -23 -34 -27 -23 -22
-12 -15 0 -21 -32 -26 -22 -20
-12 -14 -1 -21 -33 -27 -23 -20
-11 -15 0 -19 -31 -25 -20 -17
-22 -13 5 -13 -26 -22 -18 -13
-19 -13 2 -15 -28 -25 -21 -16
-18 -16 -3 -20 -31 -30 -24 -19
-26 -22 -5 -22 -35 -33 -28 -23
-25 -24 -8 -24 -37 -36 -31 -25
-14 -17 -7 -25 -36 -34 -28 -25
-13 -13 -4 -23 -34 -29 -24 -22
-16 -17 -3 -23 -33 -28 -23 -21
-16 -15 -2 -21 -32 -29 -23 -20
-11 -12 -2 -20 -30 -23 -18 -16
-20 -16 0 -18 -29 -23 -17 -16
-19 -20 -4 -21 -33 -29 -22 -19
-16 -19 -5 -22 -32 -27 -21 -20
-21 -15 -3 -20 -33 -28 -21 -20
-19 -19 -6 -23 -36 -33 -26 -24
-10 -20 -11 -27 -39 -34 -25 -25
-13 -17 -8 -27 -37 -30 -23 -23
-15 -16 -5 -24 -34 -26 -20 -20
-17 -19 -6 -24 -35 -29 -21 -20
-15 -22 -5 -24 -33 -25 -17 -17
-15 -14 -2 -19 -30 -24 -17 -15
-16 -13 -2 -20 -29 -26 -16 -14
-15 -14 -4 -22 -31 -28 -18 -17
-11 -13 -5 -23 -33 -30 -20 -19
-9 -16 -9 -26 -38 -38 -27 -25
1 -13 -9 -27 -38 -35 -23 -22
1 -10 -8 -28 -37 -33 -24 -22
-9 -15 -8 -28 -40 -35 -26 -25
-14 -16 -6 -25 -37 -33 -25 -23
-14 -17 -5 -24 -34 -29 -21 -18
-26 -19 -1 -18 -31 -28 -20 -18
-24 -18 -3 -19 -30 -28 -19 -18
-21 -15 -5 -22 -30 -28 -19 -17
-17 -14 -5 -22 -31 -29 -20 -19
-24 -17 -7 -23 -34 -33 -23 -21
-18 -19 -9 -27 -36 -33 -22 -24
-17 -16 -7 -24 -33 -29 -20 -22
-24 -20 -6 -24 -35 -32 -23 -23
-24 -21 -6 -23 -36 -33 -24 -23
-22 -19 -4 -23 -33 -29 -20 -20
-34 -21 0 -17 -30 -27 -19 -19
-27 -20 -3 -19 -30 -29 -19 -19
-21 -21 -6 -22 -33 -31 -20 -20
-25 -24 -9 -26 -37 -35 -24 -24
-19 -26 -10 -27 -38 -36 -25 -26
-11 -23 -13 -31 -40 -36 -24 -25
-15 -19 -10 -29 -36 -31 -21 -23
-19 -21 -6 -24 -32 -28 -19 -20
-14 -12 -3 -21 -32 -28 -19 -19
-10 -9 -1 -19 -28 -22 -14 -15
-26 -18 -3 -19 -29 -25 -16 -17
-23 -21 -6 -23 -31 -30 -20 -19
-18 -22 -8 -24 -32 -29 -19 -18
-21 -21 -8 -24 -33 -29 -19 -19
-13 -17 -11 -27 -36 -35 -23 -23
2 -13 -13 -29 -37 -34 -19 -22
-5 -12 -10 -27 -34 -30 -17 -20
-10 -14 -8 -24 -33 -28 -16 -20
-8 -14 -8 -23 -34 -31 -18 -21
-7 -14 -7 -22 -31 -28 -16 -19
-18 -17 -4 -18 -29 -26 -15 -17
-25 -16 -3 -18 -28 -26 -16 -17
-21 -8 0 -14 -22 -22 -11 -13
-24 -5 3 -11 -21 -21 -12 -13
-23 -6 -2 -16 -28 -30 -18 -18
-6 -7 -4 -20 -29 -28 -15 -17
-10 -12 -4 -21 -29 -25 -12 -16
-15 -13 -4 -21 -28 -25 -13 -17
-19 -12 -3 -19 -28 -26 -14 -16
-14 -5 0 -17 -24 -21 -10 -12
-18 -3 2 -14 -22 -21 -11 -12
-20 -7 -3 -18 -25 -25 -15 -15
-20 -4 -5 -17 -23 -24 -14 -14
-16 1 -9 -18 -24 -25 -13 -13
-12 0 -15 -22 -29 -30 -18 -17
0 -1 -17 -25 -29 -28 -16 -16
-1 -2 -16 -24 -27 -23 -12 -13
-10 -5 -16 -24 -28 -24 -13 -14
-9 -2 -13 -21 -28 -23 -12 -13
-4 2 -7 -18 -21 -16 -3 -7
-18 -2 -5 -15 -20 -17 -5 -8
-12 -4 -8 -19 -23 -21 -9 -12
-11 -6 -11 -21 -26 -24 -11 -14
-16 -6 -12 -22 -27 -26 -13 -15
-13 -9 -16 -26 -32 -32 -18 -18
-3 -11 -18 -27 -33 -30 -16 -18
-5 -12 -14 -24 -29 -23 -9 -13
-9 -15 -11 -21 -25 -20 -7 -11
-9 -19 -14 -24 -29 -24 -11 -14
-2 -15 -14 -23 -27 -18 -7 -9
-11 -16 -11 -21 -25 -18 -6 -9
-5 -16 -16 -26 -31 -24 -11 -13
-8 -19 -19 -29 -34 -27 -12 -15
-16 -23 -21 -32 -38 -31 -16 -18
-15 -27 -24 -36 -45 -39 -21 -23
-11 -29 -26 -39 -46 -38 -19 -21
-19 -32 -23 -37 -44 -36 -19 -21
-20 -26 -21 -33 -40 -34 -17 -19
-18 -23 -18 -31 -37 -34 -17 -18
-12 -15 -13 -27 -31 -26 -11 -14
-24 -15 -7 -21 -27 -25 -10 -14
-24 -18 -9 -22 -29 -28 -14 -16
-18 -15 -8 -22 -28 -27 -12 -15
-25 -21 -12 -26 -33 -33 -16 -20
-23 -25 -16 -30 -39 -41 -23 -24
-5 -19 -20 -35 -43 -42 -24 -27
-14 -24 -20 -36 -44 -42 -25 -28
-22 -25 -15 -32 -40 -39 -23 -26
-19 -23 -14 -31 -39 -38 -22 -25
-17 -20 -13 -30 -35 -33 -16 -20
-22 -15 -9 -25 -31 -28 -13 -17
-19 -20 -13 -27 -34 -34 -19 -21
-19 -20 -15 -28 -34 -33 -18 -21
-23 -21 -12 -27 -33 -31 -15 -19
-18 -21 -16 -30 -37 -36 -21 -23
-10 -19 -19 -33 -38 -37 -20 -23
-21 -24 -18 -33 -37 -34 -18 -23
-21 -17 -13 -29 -34 -32 -17 -21
-18 -17 -13 -27 -33 -32 -17 -22
-21 -22 -12 -26 -30 -28 -14 -21
-28 -24 -8 -20 -27 -28 -15 -21
-21 -25 -6 -16 -28 -31 -19 -24
-19 -23 2 -7 -25 -30 -19 -26
-22 -24 13 6 -20 -29 -21 -27
-18 -31 14 13 -21 -33 -26 -32
-6 -28 15 20 -15 -31 -25 -33
-7 -22 25 35 0 -21 -19 -29
-12 -15 39 62 22 -9 -11 -23
-11 -8 60 98 50 6 -2 -17
-5 7 82 128 79 31 15 -4
-15 17 89 142 105 52 28 8
-3 27 73 125 118 70 42 20
11 51 40 91 132 96 68 44
28 77 12 79 168 138 102 73
48 99 -14 74 206 185 139 102
66 120 -32 71 247 235 180 137
79 144 -48 73 293 289 218 168
84 163 -77 70 335 341 257 201
94 188 -117 52 369 385 294 235
110 222 -157 23 397 425 332 271
104 249 -193 -15 396 436 353 297
102 245 -226 -62 361 415 349 300
93 202 -238 -100 293 367 317 279
83 165 -247 -141 209 303 279 254
84 138 -259 -196 110 224 235 225
87 117 -271 -264 -10 132 191 193
63 94 -272 -319 -134 37 143 164
49 70 -261 -319 -183 -13 110 139
43 50 -240 -289 -179 -34 86 116
36 38 -212 -254 -160 -37 70 97
21 31 -180 -216 -138 -35 57 84
22 17 -162 -193 -131 -43 40 65
26 12 -144 -169 -119 -42 31 53
14 -2 -131 -153 -109 -43 20 39
8 -11 -119 -138 -103 -48 11 27
22 -2 -101 -119 -89 -40 13 25
18 5 -81 -97 -72 -32 14 22
4 0 -67 -83 -65 -30 8 13
6 -2 -57 -71 -58 -30 5 8
8 -2 -44 -56 -42 -19 9 10
-9 -7 -31 -38 -31 -14 9 9
-5 -8 -27 -30 -27 -16 5 4
-5 -8 -22 -27 -23 -17 3 1
-6 -8 -17 -22 -20 -14 0 -1
-11 -11 -17 -23 -23 -21 -3 -6
-10 -13 -13 -21 -24 -21 -2 -3
-12 -14 -9 -17 -21 -17 -1 -2
-13 -9 -5 -12 -20 -16 -1 -2
-10 -8 -1 -8 -18 -17 -2 -2
-12 -12 0 -5 -12 -11 2 -1
-22 -15 3 0 -10 -11 0 -3
-15 -15 1 -1 -12 -16 -5 -8
-6 -10 -1 -2 -12 -18 -8 -12
-10 -10 2 1 -9 -16 -7 -11
-16 -16 2 -1 -13 -20 -9 -12
-8 -15 -1 -6 -19 -24 -12 -14
-12 -15 1 -4 -16 -20 -10 -12
-17 -18 6 2 -14 -16 -8 -10
-14 -17 7 4 -12 -16 -8 -9
-13 -17 7 5 -8 -10 -4 -8
-25 -22 8 9 -4 -10 -5 -8
-20 -23 7 8 -5 -13 -7 -11
-12 -16 8 8 -1 -7 -2 -9
-16 -9 14 13 3 -3 2 -5
-11 -7 12 10 -2 -10 -2 -7
0 -4 8 6 -7 -12 -2 -7
-9 -9 9 8 -6 -10 -2 -7
-11 -13 12 11 -4 -8 -3 -7
-10 -15 11 11 -5 -9 -4 -9
-12 -15 15 17 3 -1 2 -5
-22 -17 17 21 6 0 1 -6
-14 -16 13 19 2 -5 -4 -10
-9 -16 9 15 2 -5 -3 -11
-8 -15 11 17 5 -2 -1 -9
-6 -14 11 16 3 -6 -3 -9
-2 -11 10 14 1 -4 0 -8
-8 -9 13 17 4 -2 1 -6
-16 -10 17 20 5 0 2 -5
-18 -17 15 19 5 -2 2 -6
-22 -22 15 22 8 1 2 -4
-35 -25 18 26 10 0 0 -6
-23 -20 16 25 10 -2 -1 -8
-14 -15 14 24 11 -3 -1 -8
-14 -18 13 23 12 -2 -2 -8
-8 -17 13 23 8 -5 -3 -9
8 -5 14 25 10 1 4 -3
1 -4 17 29 13 5 8 0
-11 -5 21 33 14 7 8 2
-18 -12 22 35 16 6 7 1
-22 -20 20 36 19 9 8 2
-35 -22 22 39 21 7 4 0
-21 -12 23 41 23 7 4 -1
-13 -8 21 42 22 7 3 -3
-12 -7 22 42 23 9 6 -2
-7 -6 20 39 21 6 5 -2
7 1 21 41 22 10 8 0
10 5 25 45 26 15 13 4
11 5 27 48 28 19 14 6
2 0 27 51 30 19 15 8
-5 -2 30 56 37 27 22 12
-26 -10 33 62 40 27 19 10
-17 -7 29 59 37 20 12 4
0 5 32 64 42 25 16 8
2 8 30 64 40 24 16 7
3 3 26 59 36 21 14 5
7 1 27 58 36 23 17 8
2 1 29 63 38 26 19 9
2 1 32 68 43 31 22 11
3 3 35 72 45 33 24 13
10 14 41 80 54 43 31 18
2 16 43 88 58 43 28 18
1 9 38 84 56 37 23 12
2 11 41 88 59 44 28 16
-8 10 44 92 62 45 29 16
-2 11 40 89 55 35 20 11
19 11 36 85 53 35 22 13
10 7 38 88 55 39 26 14
0 6 43 94 61 46 30 17
-2 6 46 99 65 49 33 21
9 17 52 105 72 56 40 26
6 24 54 109 77 58 40 27
2 16 48 106 74 53 34 21
0 12 46 105 74 53 33 21
-3 10 44 107 74 54 33 19
-6 6 42 103 68 47 29 16
3 9 40 101 67 49 31 17
6 18 46 108 74 56 36 23
10 26 53 115 79 62 41 28
14 24 52 116 80 63 42 29
10 21 52 116 85 69 46 30
-9 17 54 120 88 68 44 30
-1 13 49 114 84 64 42 26
5 14 47 111 81 63 41 26
4 20 51 113 83 64 43 28
4 19 49 110 79 58 39 26
13 24 45 106 74 56 38 24
23 33 47 107 77 59 39 27
22 32 48 108 79 63 41 29
17 27 47 107 77 61 40 30
14 24 49 107 79 65 44 32
-2 22 49 109 81 63 41 30
3 20 44 102 76 58 37 25
7 21 42 97 73 57 36 25
4 21 40 94 71 54 36 24
10 22 36 88 64 47 32 21
23 27 33 83 59 47 35 23
19 28 36 81 59 49 35 25
6 25 37 81 59 49 37 26
-7 18 35 78 56 46 35 25
-5 20 31 73 53 44 33 24
-16 13 31 72 52 42 30 22
-9 18 27 67 50 38 28 19
-5 17 24 62 50 40 29 21
-6 14 19 52 44 34 25 18
5 18 14 44 36 27 20 14
17 25 12 40 33 26 21 14
4 24 14 40 34 28 24 17
-2 23 17 39 34 30 24 19
-1 23 17 39 35 29 24 19
-10 15 15 34 32 27 23 16
-24 5 14 33 31 24 19 14
-17 8 10 27 25 17 15 11
-11 6 7 21 23 18 15 9
-12 3 4 15 20 15 13 8
-7 6 1 10 14 9 9 6
6 13 1 8 11 10 12 9
3 13 0 5 10 11 14 9
-6 11 1 4 8 9 13 9
-5 5 0 2 4 5 9 6
-5 3 -1 1 5 6 8 4
-22 -3 -3 0 2 0 2 -1
-21 -6 -4 -5 0 -5 -2 -3
-17 -4 -5 -5 -1 -4 0 -4
-15 -5 -5 -8 -2 -4 0 -4
-6 0 -7 -12 -8 -11 -5 -7
10 10 -7 -13 -9 -9 -2 -3
7 10 -6 -11 -7 -5 3 0
3 8 -5 -11 -8 -4 3 1
1 3 -5 -10 -10 -6 3 0
-2 -1 -7 -12 -10 -5 3 0
-17 -7 -7 -11 -10 -10 -1 -4
-8 -6 -9 -13 -11 -13 -4 -6
-4 -3 -11 -15 -11 -14 -4 -6
-9 -6 -11 -17 -14 -16 -8 -8
-10 -13 -12 -20 -19 -21 -10 -11
-6 -14 -14 -23 -21 -21 -9 -10
-2 -7 -12 -22 -20 -17 -7 -7
-5 -6 -9 -20 -18 -13 -5 -7
-10 -11 -11 -20 -20 -16 -8 -8
-11 -13 -9 -17 -14 -10 -3 -5
-25 -17 -7 -14 -14 -15 -7 -9
-18 -15 -10 -17 -17 -19 -11 -11
-9 -10 -12 -18 -16 -19 -10 -11
-10 -10 -12 -19 -18 -21 -13 -12
-15 -13 -16 -24 -25 -28 -17 -15
-5 -10 -15 -26 -25 -25 -13 -13
-11 -8 -13 -22 -21 -20 -12 -10
-16 -12 -10 -21 -21 -18 -11 -10
-20 -18 -12 -21 -23 -20 -13 -11
-15 -15 -11 -20 -19 -16 -9 -9
-18 -11 -7 -16 -14 -15 -8 -7
-13 -11 -10 -20 -16 -19 -11 -10
-4 -6 -11 -20 -16 -17 -9 -9
-9 -11 -12 -22 -19 -19 -11 -12
-10 -18 -18 -30 -30 -32 -22 -21
8 -14 -19 -32 -31 -29 -19 -19
3 -11 -13 -22 -25 -22 -13 -13
-6 -8 -6 -18 -20 -17 -9 -9
-14 -9 -2 -14 -15 -14 -5 -5
-10 -6 0 -11 -10 -9 -1 -3
-14 -10 0 -10 -10 -10 -3 -6
-15 -19 -6 -15 -14 -16 -7 -11
-13 -17 -8 -17 -17 -17 -9 -12
-8 -12 -7 -17 -17 -17 -8 -12
-13 -19 -12 -22 -25 -26 -16 -17
-9 -22 -14 -25 -26 -26 -15 -16
-7 -19 -10 -21 -22 -20 -11 -13
0 -6 -4 -15 -19 -17 -10 -11
1 -4 -4 -13 -19 -19 -11 -11
-6 -12 -3 -13 -15 -14 -7 -10
-18 -11 0 -9 -12 -13 -8 -11
-7 -9 -1 -9 -12 -16 -9 -10
-5 -9 -2 -8 -12 -15 -7 -11
1 -4 -2 -10 -13 -15 -7 -11
-3 -8 -5 -14 -18 -21 -13 -14
-2 -15 -9 -19 -21 -24 -14 -15
-1 -10 -5 -15 -18 -17 -10 -11
-3 -8 -3 -11 -15 -15 -9 -10
-7 -9 -1 -10 -16 -17 -11 -10
-3 -8 0 -8 -12 -11 -7 -8
-15 -9 4 -4 -10 -12 -9 -9
-11 -9 2 -6 -10 -13 -9 -10
-4 -10 -1 -9 -13 -14 -9 -11
-7 -14 -4 -11 -16 -17 -13 -14
-6 -17 -7 -17 -22 -24 -17 -17
8 -13 -8 -18 -21 -20 -13 -14
3 -9 -6 -16 -20 -17 -11 -11
-2 -8 -3 -11 -15 -14 -8 -9
-8 -14 -2 -10 -17 -16 -10 -10
-10 -16 -1 -8 -14 -12 -8 -9
-16 -11 1 -6 -13 -14 -9 -11
-8 -10 0 -8 -14 -18 -12 -13
-2 -11 0 -9 -13 -16 -11 -13
-5 -16 -3 -11 -16 -17 -14 -15
-6 -20 -6 -16 -22 -24 -19 -19
4 -17 -8 -17 -21 -21 -15 -15
-1 -18 -7 -17 -22 -19 -14 -15
-1 -21 -8 -18 -22 -20 -17 -17
-6 -15 -1 -11 -18 -18 -14 -14
-7 -13 5 -4 -11 -10 -8 -9
-14 -15 7 -2 -10 -11 -10 -11
-8 -9 5 -3 -12 -16 -13 -13
-8 -6 2 -7 -15 -19 -15 -16
-12 -11 -1 -10 -17 -20 -16 -19
-12 -15 -5 -14 -23 -27 -23 -22
6 -10 -6 -16 -23 -26 -20 -20
3 -9 -4 -15 -21 -21 -17 -17
-5 -17 -4 -15 -22 -22 -19 -20
-15 -22 -3 -14 -22 -22 -19 -20
-15 -25 -4 -14 -20 -20 -18 -19
-21 -25 -3 -11 -19 -21 -20 -21
-21 -27 -4 -13 -21 -24 -21 -22
-21 -27 -7 -15 -23 -26 -22 -22
-5 -12 -1 -11 -21 -24 -21 -21
2 -5 0 -10 -23 -26 -23 -21
3 -6 -2 -13 -23 -26 -20 -19
1 -4 1 -10 -20 -19 -15 -14
-5 -8 2 -10 -20 -18 -16 -15
-1 -10 1 -10 -22 -21 -18 -16
6 -9 2 -9 -17 -15 -13 -13
-14 -15 5 -5 -15 -14 -13 -12
-11 -14 0 -10 -19 -19 -17 -16
-5 -13 -3 -13 -21 -22 -18 -18
-10 -15 -4 -14 -24 -25 -22 -22
-12 -19 -6 -18 -29 -31 -27 -25
-6 -22 -9 -21 -30 -31 -26 -24
-9 -21 -6 -18 -28 -26 -21 -20
-6 -17 -4 -16 -25 -22 -19 -19
-4 -14 -2 -13 -24 -23 -19 -19
-1 -12 0 -10 -19 -16 -12 -14
-11 -13 3 -8 -17 -15 -12 -14
-7 -15 -3 -13 -21 -22 -18 -18
-7 -14 -1 -13 -19 -17 -14 -16
-20 -15 1 -11 -20 -19 -17 -16
-11 -17 -7 -19 -32 -32 -28 -24
7 -14 -9 -23 -32 -31 -26 -22
-2 -16 -5 -19 -30 -26 -23 -20
-9 -18 -3 -16 -28 -25 -23 -20
-6 -20 -3 -17 -29 -28 -26 -23
-4 -18 -2 -16 -26 -23 -20 -18
-11 -18 -2 -14 -25 -22 -20 -20
1 -10 -3 -15 -26 -26 -22 -21
1 -14 -5 -16 -27 -27 -22 -22
-11 -24 -6 -15 -28 -28 -24 -23
-12 -25 -9 -22 -36 -37 -31 -28
5 -16 -10 -24 -35 -34 -29 -25
-5 -13 -7 -20 -30 -29 -26 -23
-12 -15 -3 -17 -31 -29 -27 -23
-11 -18 -5 -18 -32 -31 -29 -24
-15 -22 -6 -18 -29 -27 -25 -22
-15 -20 -4 -15 -27 -27 -25 -23
0 -14 -5 -16 -30 -28 -26 -24
-1 -8 -2 -14 -25 -25 -22 -21
-5 -10 -3 -15 -26 -24 -22 -20
-1 -13 -7 -19 -34 -32 -28 -26
11 -12 -8 -22 -33 -30 -26 -23
6 -11 -5 -19 -30 -27 -22 -20
0 -15 -4 -19 -33 -30 -25 -22
-1 -17 -5 -20 -34 -31 -26 -22
-2 -17 -3 -18 -28 -24 -21 -19
-16 -16 0 -14 -26 -23 -21 -19
-7 -15 -2 -14 -28 -27 -22 -19
-6 -15 -5 -17 -28 -27 -21 -21
-6 -13 -3 -17 -28 -27 -22 -22
-2 -16 -5 -20 -33 -32 -26 -25
8 -18 -8 -23 -33 -31 -24 -23
6 -15 -5 -21 -31 -28 -24 -21
4 -17 -5 -22 -34 -30 -28 -24
-4 -20 -4 -19 -35 -30 -28 -24
-5 -15 0 -15 -26 -21 -20 -17
-17 -17 0 -14 -28 -24 -24 -20
-12 -17 -3 -17 -32 -31 -29 -25
-8 -19 -7 -21 -34 -32 -30 -28
-15 -22 -3 -19 -33 -31 -30 -28
-8 -17 -3 -18 -34 -35 -31 -28
11 -11 -5 -21 -33 -32 -27 -25
5 -12 -4 -20 -32 -29 -25 -23
-5 -16 -2 -19 -31 -28 -25 -24
-8 -20 -5 -19 -34 -32 -28 -27
-8 -21 -4 -18 -31 -27 -25 -23
-13 -23 -1 -15 -30 -27 -25 -24
-8 -23 -4 -17 -33 -32 -31 -28
-7 -21 -6 -18 -34 -34 -31 -28
-9 -19 -3 -17 -31 -31 -30 -26
-8 -18 -3 -18 -35 -34 -32 -27
6 -14 -5 -21 -35 -32 -30 -25
2 -18 -4 -21 -33 -29 -29 -24
-3 -16 -1 -18 -31 -26 -28 -23
6 -12 1 -15 -29 -25 -25 -21
7 -12 2 -14 -25 -19 -20 -17
-9 -16 2 -13 -27 -22 -24 -20
-7 -15 -1 -14 -29 -27 -26 -23
-3 -11 1 -13 -28 -27 -25 -22
-4 -8 3 -11 -26 -25 -24 -21
2 -8 -1 -16 -33 -34 -33 -28
16 -6 -3 -18 -32 -31 -30 -26
12 -6 1 -15 -28 -25 -26 -22
3 -4 2 -14 -27 -24 -26 -21
-2 -7 5 -12 -26 -24 -26 -22
-5 -10 5 -11 -20 -16 -18 -16
-18 -16 4 -12 -23 -20 -22 -20
-9 -11 1 -14 -24 -23 -23 -23
-3 -7 6 -9 -23 -21 -22 -21
4 1 7 -8 -22 -20 -21 -20
13 3 3 -11 -27 -26 -27 -23
14 0 1 -13 -26 -26 -26 -22
10 4 4 -8 -23 -21 -25 -18
9 4 0 -11 -23 -19 -24 -18
10 2 -1 -10 -22 -19 -23 -18
16 6 -1 -10 -18 -13 -16 -13
3 0 -1 -6 -19 -13 -18 -15
12 -5 -5 -11 -23 -19 -23 -19
7 -8 -5 -14 -24 -19 -23 -19
-3 -8 -3 -12 -24 -22 -26 -20
1 -6 -4 -13 -28 -26 -29 -23
15 -2 -4 -15 -27 -26 -27 -22
7 2 1 -11 -24 -22 -25 -18
7 -3 -2 -12 -26 -24 -28 -21
6 -9 -2 -14 -29 -25 -30 -23
6 -8 0 -11 -23 -18 -23 -18
-7 -11 4 -8 -22 -16 -21 -16
0 -11 -1 -11 -27 -23 -26 -21
9 -10 -1 -11 -27 -21 -24 -21
8 -12 -2 -11 -28 -22 -24 -21
9 -14 -7 -19 -37 -30 -30 -25
25 -9 -10 -18 -36 -30 -30 -24
12 -13 -8 -21 -37 -29 -32 -24
1 -18 -7 -21 -38 -29 -33 -24
2 -17 -6 -21 -38 -30 -32 -24
7 -15 -4 -20 -34 -24 -28 -22
-3 -17 -3 -18 -34 -24 -28 -23
2 -21 -4 -17 -34 -27 -30 -24
-1 -16 0 -15 -30 -24 -26 -22
1 -8 4 -12 -28 -22 -25 -21
12 -8 1 -16 -35 -30 -31 -26
25 -12 -2 -20 -38 -32 -32 -28
15 -14 1 -17 -35 -29 -32 -28
-2 -18 3 -15 -34 -28 -33 -28
1 -18 4 -15 -36 -29 -32 -28
9 -20 2 -16 -34 -26 -31 -27
-7 -21 3 -15 -36 -30 -34 -29
-4 -23 0 -18 -40 -34 -37 -31
-2 -23 -1 -19 -39 -32 -36 -32
-8 -23 0 -18 -38 -32 -38 -32
-5 -27 -1 -20 -42 -36 -40 -32
12 -22 -5 -25 -44 -37 -41 -34
9 -21 -3 -21 -41 -33 -39 -33
-1 -27 0 -19 -41 -33 -40 -33
1 -22 2 -16 -40 -33 -38 -33
3 -18 4 -13 -33 -25 -32 -27
-11 -18 6 -11 -33 -28 -34 -29
-5 -18 3 -14 -35 -33 -38 -30
0 -18 1 -16 -37 -34 -37 -32
-3 -18 3 -14 -35 -32 -37 -31
6 -15 3 -14 -37 -35 -40 -32
13 -16 3 -13 -38 -34 -40 -32
4 -19 12 -2 -33 -30 -39 -32
4 -21 21 7 -31 -29 -41 -34
4 -25 28 18 -27 -29 -42 -38
3 -26 35 33 -15 -19 -37 -35
-11 -28 43 47 -4 -17 -36 -36
-13 -26 48 58 6 -16 -37 -36
-5 -9 61 85 30 -2 -28 -29
1 5 87 119 58 17 -17 -21
11 16 99 140 79 31 -7 -12
31 31 97 145 107 58 16 5
34 47 80 126 123 83 38 24
46 67 44 95 138 113 63 46
62 87 18 86 174 157 99 75
74 107 -1 84 219 210 141 110
69 124 -17 85 261 256 175 138
87 146 -37 82 307 303 210 167
104 178 -68 73 348 354 249 203
116 209 -108 51 383 398 287 236
122 236 -151 14 399 421 314 264
132 261 -192 -31 391 427 333 286
116 241 -218 -78 352 404 322 283
99 193 -225 -108 283 355 289 260
100 162 -232 -146 199 293 254 239
96 140 -239 -194 103 221 221 216
74 118 -242 -253 -28 121 168 183
66 93 -250 -307 -155 20 114 147
69 76 -237 -292 -187 -21 83 123
64 65 -210 -257 -176 -37 61 100
53 56 -185 -227 -162 -44 40 79
50 46 -161 -197 -144 -43 28 65
42 30 -137 -170 -129 -38 20 56
35 14 -119 -148 -118 -38 10 42
36 4 -106 -130 -109 -37 2 29
33 5 -88 -108 -90 -26 4 27
14 3 -72 -88 -79 -25 -2 19
17 3 -61 -78 -72 -28 -10 7
18 0 -49 -68 -66 -26 -13 1
11 -5 -37 -55 -58 -29 -15 -4
16 -8 -28 -44 -54 -29 -21 -9
27 -7 -24 -37 -49 -27 -22 -11
29 -7 -16 -27 -39 -21 -21 -11
28 1 -5 -15 -29 -15 -18 -9
20 1 3 -8 -24 -10 -15 -8
16 -2 10 -1 -16 0 -7 -3
7 -2 13 1 -17 -3 -11 -5
16 1 11 0 -19 -9 -15 -10
17 -2 14 2 -17 -6 -13 -9
10 -6 13 4 -17 -9 -18 -12
11 -9 10 2 -22 -16 -25 -17
16 -11 9 2 -21 -15 -24 -18
7 -14 11 3 -18 -13 -25 -18
6 -12 14 5 -16 -12 -24 -18
4 -11 16 7 -14 -11 -24 -19
-1 -11 21 12 -9 -5 -18 -14
-10 -10 24 16 -9 -7 -20 -15
-6 -16 21 14 -13 -10 -23 -18
3 -12 23 15 -11 -8 -20 -17
4 -11 23 16 -11 -8 -21 -17
4 -13 19 12 -16 -16 -29 -22
16 -7 21 15 -11 -10 -24 -19
10 -8 23 17 -8 -7 -23 -17
7 -10 24 18 -8 -8 -25 -19
12 -9 23 18 -8 -7 -24 -20
7 -11 27 21 -4 -3 -18 -15
-11 -16 29 25 -5 -4 -20 -16
-4 -15 26 22 -9 -9 -23 -19
1 -9 28 23 -7 -6 -20 -17
1 -8 29 25 -6 -5 -21 -17
3 -12 25 22 -9 -11 -27 -22
13 -14 24 20 -8 -8 -25 -22
10 -11 26 23 -4 -2 -22 -18
5 -11 27 26 -1 1 -20 -18
8 -7 27 27 0 1 -19 -18
11 -4 32 30 5 7 -13 -12
-3 -6 35 35 5 6 -14 -12
3 -7 32 31 3 2 -17 -14
6 -7 32 31 2 3 -17 -15
9 -6 32 33 4 3 -17 -15
15 -6 28 31 1 -3 -21 -19
23 -5 26 30 2 -1 -19 -18
16 0 30 34 9 7 -14 -13
11 -5 33 37 13 11 -10 -10
10 -5 32 37 12 11 -10 -11
11 -2 36 41 17 18 -3 -5
-6 -7 36 42 15 14 -7 -7
-4 -12 33 38 10 6 -12 -12
0 -15 32 38 9 7 -12 -13
-4 -18 31 39 10 5 -15 -14
-2 -15 30 40 7 0 -20 -18
6 -11 31 41 12 5 -16 -15
5 -10 35 46 16 11 -12 -11
9 -8 36 47 19 15 -11 -10
22 8 41 53 23 21 -5 -5
26 15 47 60 31 29 4 2
8 7 48 61 30 27 2 0
6 3 43 58 25 20 -4 -5
12 3 43 60 26 23 -1 -4
5 1 43 62 26 21 -3 -6
5 -5 39 60 22 13 -12 -11
20 0 40 61 25 19 -8 -9
15 3 42 65 30 24 -4 -6
16 5 43 67 33 27 -4 -5
14 4 45 68 36 31 -2 -3
8 6 48 73 41 38 5 3
0 11 53 79 45 40 8 5
5 8 51 79 43 38 8 3
10 4 50 80 43 38 8 3
14 8 50 82 43 36 5 1
13 5 49 84 41 30 0 -2
25 14 50 86 45 35 3 0
19 15 54 91 52 42 8 4
20 16 55 93 54 44 8 3
26 21 58 96 58 50 12 7
27 28 63 102 65 60 22 15
13 25 66 106 67 60 22 15
23 21 61 103 64 56 19 11
24 14 59 103 62 56 19 12
19 17 61 107 65 55 19 14
22 20 60 108 63 51 15 10
34 24 57 108 64 52 16 10
29 22 60 111 70 58 20 12
22 20 62 114 74 60 20 14
17 18 61 113 73 59 19 14
16 18 64 117 78 67 27 21
0 16 66 120 77 67 25 20
14 21 63 117 74 62 23 17
23 25 64 118 74 66 28 20
16 24 65 121 77 65 27 20
15 22 62 119 73 59 22 17
26 21 58 115 71 58 22 16
19 18 59 116 74 63 22 17
15 15 57 113 72 61 21 13
16 18 59 113 72 60 21 15
27 33 63 116 76 67 28 21
21 36 64 117 76 66 27 20
26 33 65 115 74 61 24 19
24 32 66 117 75 66 28 24
18 29 63 114 72 62 27 21
20 26 58 109 65 54 19 15
32 27 55 105 67 58 22 16
29 31 56 105 68 62 25 19
28 34 56 104 69 61 25 20
25 30 53 99 67 60 23 20
26 33 54 98 67 63 27 23
11 29 56 98 66 61 26 22
9 24 51 91 59 53 21 18
19 29 49 89 59 54 23 20
15 26 48 83 56 50 23 19
11 24 42 77 50 44 19 15
29 32 40 73 50 45 20 15
26 32 39 71 52 49 22 16
18 25 37 66 50 46 20 15
15 21 33 59 45 42 17 13
11 18 32 56 41 42 18 13
5 22 33 56 39 39 15 13
13 26 31 50 35 35 13 10
12 26 29 47 32 32 13 12
11 27 30 45 30 29 10 10
14 27 24 39 23 22 4 5
20 26 22 34 22 23 4 6
21 26 22 34 24 26 7 8
13 20 20 30 21 23 4 4
10 16 17 25 16 19 2 3
9 16 18 23 17 22 6 6
-13 9 17 20 12 18 2 3
-10 8 14 15 7 12 -2 0
-5 8 11 12 3 9 -5 -1
-6 6 10 9 -1 2 -10 -5
1 8 6 5 -6 -5 -15 -9
14 11 5 2 -7 -3 -14 -11
13 11 7 3 -4 1 -11 -9
5 5 7 3 -3 2 -11 -9
3 2 6 0 -6 0 -11 -9
8 6 8 1 -4 6 -5 -4
-4 3 8 3 -5 4 -6 -4
-5 -2 4 -2 -12 -4 -12 -9
-7 -6 3 -6 -14 -4 -12 -9
-15 -8 2 -7 -17 -8 -15 -11
-12 -12 -2 -9 -22 -17 -23 -17
2 -10 -4 -13 -22 -16 -22 -18
2 -3 0 -11 -17 -10 -18 -15
6 1 4 -7 -12 -5 -15 -12
8 0 4 -9 -17 -7 -15 -13
7 7 7 -5 -10 1 -7 -5
2 10 9 -2 -9 2 -6 -3
9 3 3 -8 -17 -8 -13 -9
13 2 1 -10 -19 -9 -13 -11
7 -1 0 -10 -20 -12 -16 -13
1 -5 -3 -11 -26 -20 -24 -19
16 -2 -6 -15 -24 -18 -23 -18
9 -4 -4 -15 -21 -15 -21 -17
-4 -6 -3 -13 -21 -16 -22 -19
-4 -5 -2 -15 -22 -16 -21 -19
-3 -8 -1 -14 -20 -11 -16 -15
-9 -9 1 -12 -20 -12 -17 -13
2 -6 -1 -14 -23 -14 -17 -14
3 -7 -1 -15 -24 -14 -17 -13
-3 -10 -3 -16 -25 -16 -19 -16
-6 -13 -5 -17 -30 -24 -26 -21
7 -9 -7 -19 -28 -22 -26 -21
1 -13 -5 -19 -26 -18 -24 -19
-6 -11 -3 -16 -25 -18 -24 -20
-5 -7 -1 -15 -25 -17 -23 -18
-4 -8 0 -15 -21 -12 -17 -15
-20 -11 3 -10 -19 -12 -16 -13
-9 -5 2 -8 -20 -14 -16 -13
-1 -2 3 -9 -19 -9 -12 -11
-12 -6 5 -7 -18 -11 -14 -12
-5 -6 2 -9 -22 -17 -19 -15
12 -5 -3 -14 -23 -18 -19 -17
10 -3 -1 -12 -20 -15 -19 -15
2 -5 0 -14 -20 -14 -20 -17
-6 -7 3 -11 -19 -14 -20 -15
-2 -3 7 -8 -14 -6 -12 -9
-5 4 9 -6 -16 -10 -14 -10
1 3 7 -5 -17 -12 -14 -12
3 -2 4 -8 -19 -13 -14 -14
-4 -5 4 -8 -20 -14 -16 -15
-1 -5 2 -10 -22 -19 -21 -17
13 -5 0 -13 -22 -16 -18 -16
5 -5 2 -11 -20 -14 -18 -16
5 1 4 -10 -17 -11 -16 -14
2 -1 4 -10 -19 -13 -17 -15
3 -5 5 -9 -17 -9 -13 -13
-13 -12 7 -5 -17 -9 -14 -13
-18 -15 3 -10 -23 -16 -19 -17
-16 -15 2 -11 -24 -16 -18 -17
-11 -12 1 -10 -23 -18 -20 -19
-2 -8 -1 -12 -27 -24 -26 -21
11 -5 0 -12 -21 -17 -20 -17
5 -4 5 -6 -15 -11 -15 -14
3 -4 4 -7 -15 -12 -16 -15
-3 -7 5 -7 -17 -12 -17 -15
-5 -3 9 -4 -12 -5 -10 -9
-17 -5 12 0 -12 -6 -12 -9
-11 -7 9 -2 -17 -12 -16 -11
-6 -1 9 -3 -17 -12 -17 -12
-7 -5 7 -3 -18 -15 -19 -15
-10 -14 2 -7 -23 -21 -24 -21
3 -16 -2 -11 -23 -21 -25 -22
2 -16 1 -10 -21 -17 -23 -21
-4 -9 4 -7 -17 -14 -20 -19
4 -2 8 -3 -14 -10 -17 -15
6 -1 9 -3 -10 -3 -10 -9
-16 -11 10 -2 -12 -6 -12 -11
-12 -10 6 -5 -16 -11 -15 -12
-7 -9 6 -5 -17 -12 -16 -12
-4 -7 6 -6 -18 -16 -19 -14
2 -8 2 -8 -24 -21 -25 -19
17 -5 0 -10 -23 -20 -23 -21
12 -9 2 -8 -18 -14 -19 -18
0 -13 3 -8 -17 -14 -19 -18
0 -11 4 -7 -18 -13 -19 -19
6 -6 7 -5 -12 -5 -11 -12
-7 -10 6 -5 -15 -9 -13 -14
-1 -11 4 -8 -19 -14 -17 -15
1 -14 1 -11 -21 -16 -19 -19
-14 -19 2 -10 -21 -20 -20 -19
-11 -17 2 -9 -23 -23 -24 -21
0 -14 -1 -11 -23 -22 -23 -22
1 -9 2 -10 -20 -18 -21 -21
7 -1 5 -6 -17 -15 -19 -17
-1 -4 5 -8 -19 -16 -20 -18
-3 -6 9 -4 -11 -7 -10 -11
-13 -7 11 -3 -12 -8 -11 -11
-10 -9 5 -6 -18 -15 -17 -15
-8 -10 5 -8 -17 -14 -15 -13
-17 -16 5 -8 -19 -16 -18 -16
-19 -21 1 -11 -25 -25 -27 -22
-5 -19 -3 -15 -24 -25 -27 -23
-5 -15 0 -14 -21 -21 -24 -21
-10 -16 2 -11 -20 -20 -23 -21
-8 -14 1 -12 -22 -22 -24 -22
1 -9 3 -10 -19 -16 -19 -17
-10 -11 7 -8 -17 -14 -17 -15
-7 -13 1 -14 -23 -21 -22 -19
1 -12 0 -14 -23 -21 -21 -19
1 -15 0 -14 -24 -21 -21 -19
-7 -16 -2 -14 -28 -27 -26 -21
4 -10 -3 -17 -24 -23 -22 -19
-4 -13 -3 -16 -21 -20 -21 -18
-10 -15 -4 -17 -25 -24 -24 -22
-12 -20 -5 -18 -26 -24 -25 -23
-5 -12 0 -15 -20 -18 -18 -16
-10 -5 7 -8 -17 -14 -13 -11
1 -4 2 -14 -21 -20 -17 -15
0 -8 -1 -15 -25 -21 -18 -17
-1 -10 0 -16 -26 -23 -20 -17
6 -10 -6 -19 -30 -28 -24 -22
11 -10 -6 -21 -27 -26 -23 -21
1 -9 -2 -15 -21 -19 -18 -17
0 -13 -1 -16 -22 -21 -20 -18
1 -11 -2 -16 -24 -22 -22 -20
0 -8 1 -15 -19 -15 -15 -13
-14 -10 2 -12 -21 -18 -17 -14
-14 -17 -1 -17 -27 -26 -23 -18
-9 -19 -4 -18 -30 -26 -22 -17
-13 -16 -1 -16 -27 -26 -22 -17
-8 -13 -4 -18 -31 -29 -27 -21
0 -15 -8 -22 -31 -29 -26 -22
-3 -16 -5 -20 -28 -24 -24 -20
-5 -16 -5 -19 -28 -25 -24 -21
-10 -20 -5 -19 -29 -26 -25 -23
-8 -19 -2 -19 -25 -21 -18 -17
-21 -25 -3 -18 -27 -24 -21 -19
-22 -27 -5 -20 -31 -32 -27 -23
-9 -21 -4 -19 -30 -30 -24 -20
-19 -23 -4 -19 -29 -31 -25 -21
-20 -22 -5 -19 -31 -34 -28 -22
5 -8 -5 -21 -28 -30 -24 -20
1 -10 -3 -20 -25 -25 -21 -19
0 -9 -4 -20 -25 -25 -22 -19
5 -2 -1 -17 -22 -23 -18 -17
4 -4 1 -17 -20 -18 -13 -13
-12 -9 3 -15 -20 -19 -14 -13
-13 -13 0 -17 -26 -24 -18 -15
-12 -9 1 -16 -23 -21 -16 -14
-17 -12 1 -15 -24 -22 -19 -15
-12 -15 -3 -18 -30 -32 -25 -20
7 -12 -9 -24 -31 -31 -24 -21
-1 -14 -6 -22 -28 -27 -21 -19
-6 -15 -4 -20 -26 -25 -21 -19
-1 -12 -5 -20 -24 -23 -19 -18
-2 -12 -2 -18 -20 -16 -12 -12
-17 -14 3 -16 -21 -17 -12 -11
-13 -15 -2 -19 -23 -23 -17 -14
-12 -17 -6 -23 -28 -29 -21 -18
-16 -21 -5 -22 -29 -30 -22 -18
-14 -25 -7 -23 -32 -36 -27 -22
-4 -24 -13 -29 -34 -39 -31 -27
-9 -23 -10 -26 -31 -34 -27 -25
-15 -27 -7 -24 -29 -31 -26 -23
-10 -21 -6 -21 -28 -30 -23 -21
6 -7 0 -16 -17 -19 -12 -13
-8 -11 3 -12 -18 -20 -12 -12
-8 -14 -2 -19 -25 -27 -18 -16
-6 -12 -4 -20 -27 -28 -19 -17
-7 -10 -3 -20 -27 -30 -21 -18
-7 -12 -6 -22 -30 -35 -27 -22
1 -12 -10 -26 -32 -35 -26 -24
-7 -10 -5 -24 -27 -30 -24 -20
-10 -13 -4 -23 -27 -30 -25 -22
-4 -13 -5 -22 -26 -30 -25 -22
-1 -11 -2 -20 -20 -22 -15 -15
-21 -16 1 -16 -20 -23 -16 -14
-19 -19 -1 -17 -23 -27 -18 -16
-6 -16 -3 -20 -22 -25 -16 -15
-8 -15 -2 -20 -23 -26 -17 -15
-6 -18 -7 -23 -28 -34 -22 -21
2 -17 -11 -27 -29 -34 -23 -23
-6 -18 -8 -25 -25 -30 -21 -21
-11 -17 -5 -22 -23 -28 -20 -19
-9 -18 -5 -22 -23 -28 -20 -19
-11 -18 -2 -20 -20 -21 -13 -13
-26 -18 2 -16 -16 -19 -11 -10
-19 -20 -5 -22 -25 -29 -18 -17
-9 -21 -8 -26 -27 -29 -17 -17
-7 -18 -6 -24 -27 -28 -16 -15
-11 -20 -7 -24 -29 -33 -20 -19
4 -15 -8 -26 -28 -32 -18 -20
0 -15 -6 -24 -25 -29 -18 -18
-7 -16 -3 -23 -24 -30 -19 -18
-6 -16 -5 -24 -23 -30 -17 -19
-11 -18 -3 -21 -20 -24 -13 -14
-26 -17 1 -18 -17 -24 -13 -13
-21 -21 -3 -20 -23 -29 -17 -16
-9 -16 -3 -20 -23 -29 -15 -15
-1 -6 1 -17 -19 -26 -13 -12
-1 -9 -5 -21 -24 -32 -19 -17
8 -7 -5 -21 -22 -31 -19 -18
1 -8 -1 -19 -17 -26 -14 -15
-10 -13 -2 -19 -19 -28 -18 -17
-9 -14 -2 -17 -17 -26 -15 -15
-7 -10 1 -16 -14 -21 -10 -12
-22 -9 3 -14 -14 -23 -11 -11
-16 -5 1 -17 -16 -25 -14 -12
-11 -3 2 -16 -13 -22 -10 -9
-9 0 4 -14 -12 -21 -9 -9
-8 -5 0 -18 -16 -27 -15 -13
11 -2 -4 -22 -19 -30 -17 -17
7 -1 1 -17 -13 -23 -12 -13
-1 0 2 -15 -10 -21 -10 -10
0 3 -2 -17 -11 -22 -8 -10
7 11 -2 -14 -5 -13 0 -3
-9 4 -2 -11 -6 -15 -1 -2
-6 1 -6 -15 -11 -21 -6 -4
-3 0 -7 -16 -12 -21 -4 -4
-5 1 -8 -18 -13 -22 -6 -6
1 -2 -10 -21 -18 -28 -11 -10
11 -5 -12 -25 -18 -28 -12 -12
8 -5 -10 -24 -15 -25 -10 -12
2 -5 -8 -22 -14 -22 -7 -10
-4 -11 -9 -24 -15 -23 -7 -10
-3 -12 -7 -24 -12 -18 -2 -7
-18 -15 -3 -18 -12 -18 -1 -5
-15 -17 -6 -21 -16 -24 -8 -7
1 -4 -5 -18 -13 -21 -3 -4
7 -1 -5 -17 -14 -22 -4 -4
0 -11 -11 -22 -22 -32 -14 -10
7 -11 -13 -27 -22 -30 -13 -11
3 -15 -13 -28 -21 -28 -12 -11
-5 -19 -14 -29 -22 -28 -12 -12
-9 -23 -15 -31 -23 -27 -10 -11
-10 -23 -13 -30 -20 -23 -4 -7
-17 -16 -7 -23 -17 -21 -2 -3
-9 -10 -8 -24 -21 -26 -6 -4
-10 -16 -13 -27 -25 -30 -10 -9
-14 -16 -10 -25 -23 -31 -11 -11
-12 -10 -9 -25 -24 -34 -14 -10
0 -5 -8 -26 -23 -33 -15 -12
-7 -13 -7 -25 -20 -30 -12 -12
-11 -15 -5 -25 -20 -30 -12 -15
-8 -16 -6 -26 -20 -29 -12 -15
-9 -17 -7 -28 -19 -26 -8 -13
-24 -22 -6 -26 -20 -27 -8 -12
-15 -19 -7 -27 -22 -30 -10 -12
-9 -17 -10 -28 -25 -32 -11 -13
-15 -22 -10 -29 -27 -35 -13 -16
-15 -27 -13 -32 -31 -40 -19 -19
-7 -24 -17 -36 -32 -42 -20 -22
-11 -20 -12 -33 -27 -37 -17 -18
-14 -19 -11 -31 -26 -37 -17 -19
-12 -20 -9 -29 -23 -33 -13 -15
-15 -17 -4 -24 -18 -24 -5 -8
-29 -19 -4 -24 -18 -25 -6 -8
-19 -19 -7 -26 -21 -29 -9 -9
-13 -16 -7 -28 -19 -24 -4 -8
-23 -15 -4 -24 -18 -24 -5 -7
-16 -15 -8 -27 -23 -33 -13 -13
-7 -20 -10 -29 -25 -36 -15 -17
-19 -25 -6 -23 -21 -32 -14 -17
-21 -26 4 -12 -18 -31 -16 -18
-16 -21 13 -3 -18 -35 -20 -21
-20 -22 23 11 -10 -28 -17 -19
-38 -31 30 24 -3 -25 -17 -19
-30 -25 36 37 7 -22 -15 -20
-18 -11 46 58 25 -11 -7 -13
-18 -4 67 88 48 2 0 -7
-12 2 84 115 69 12 6 -5
3 15 90 127 92 32 19 6
3 31 83 126 116 56 38 20
7 47 56 97 129 79 59 40
17 66 23 72 151 110 87 63
30 86 5 73 194 160 126 95
34 106 -13 73 233 208 161 127
59 132 -34 66 271 249 192 153
81 153 -64 65 313 299 229 183
97 177 -98 61 352 349 267 215
107 207 -140 43 386 388 303 248
130 240 -183 13 403 420 339 284
130 259 -220 -31 391 428 358 306
114 236 -239 -76 342 397 342 299
100 196 -245 -110 269 343 309 275
94 170 -251 -153 187 285 278 256
73 146 -255 -209 88 206 235 230
71 122 -268 -282 -44 104 180 194
63 99 -269 -324 -144 20 136 164
58 79 -252 -306 -163 -14 109 142
46 61 -229 -277 -158 -35 83 116
48 50 -201 -242 -139 -38 69 99
44 40 -169 -205 -119 -30 61 88
35 20 -147 -178 -105 -28 52 75
29 11 -132 -156 -94 -28 42 63
27 8 -116 -138 -82 -23 38 55
2 3 -97 -114 -71 -22 31 47
3 2 -84 -102 -65 -27 21 36
6 2 -72 -92 -61 -31 14 25
-5 -2 -58 -75 -54 -32 7 16
-8 -4 -44 -60 -46 -33 2 13
2 -5 -35 -49 -36 -26 3 11
3 -4 -26 -36 -24 -17 7 11
-3 -4 -17 -27 -15 -11 10 12
-5 -7 -13 -22 -14 -11 8 11
-3 -6 -7 -18 -7 -4 13 12
-24 -10 -1 -12 -6 -6 12 12
-21 -9 0 -12 -11 -13 6 9
-11 -5 -1 -14 -12 -15 4 6
-13 -8 0 -11 -14 -18 1 3
-11 -9 -1 -10 -15 -25 -6 -2
-2 -10 -3 -10 -14 -24 -7 -4
-6 -11 2 -6 -9 -18 -5 -4
-11 -15 4 -4 -6 -15 -4 -4
-14 -22 3 -4 -7 -17 -6 -8
-15 -23 6 -1 -4 -11 -1 -5
-29 -22 10 0 -2 -9 2 -2
-20 -16 9 -1 -5 -14 -1 -1
-7 -6 12 2 -3 -13 1 -1
-8 -6 15 6 -3 -13 0 0
-10 -10 13 6 -6 -21 -7 -5
0 -9 10 4 -5 -20 -7 -8
0 -6 14 9 -1 -15 -3 -6
-3 -9 15 10 2 -12 -3 -6
-9 -13 14 9 2 -12 -2 -7
-14 -14 16 10 6 -5 3 -1
-28 -17 21 15 7 -4 6 1
-11 -8 21 13 4 -7 5 1
-3 -6 20 13 5 -8 4 -1
-7 -11 19 13 3 -10 1 -3
-11 -14 15 12 -2 -19 -7 -10
-1 -12 13 10 -1 -17 -9 -11
-1 -10 15 13 2 -13 -7 -11
-4 -13 15 15 4 -12 -8 -11
-9 -15 16 16 5 -11 -7 -11
-12 -11 20 18 10 -2 2 -5
-28 -14 25 23 11 -1 4 -1
-15 -14 22 19 8 -4 2 -1
-8 -9 20 18 7 -5 2 -2
-12 -9 23 21 9 -4 2 -1
-11 -14 17 20 3 -13 -6 -7
0 -12 15 19 5 -12 -6 -9
-7 -9 21 26 13 -3 0 -4
-17 -10 24 30 17 0 2 -2
-23 -10 25 30 17 -1 2 -1
-18 -8 28 33 22 8 7 3
-30 -11 31 36 23 7 8 4
-21 -10 30 34 19 2 5 3
-9 -4 28 33 19 3 7 3
-12 -8 28 34 17 2 4 1
-7 -9 25 34 14 -5 -2 -3
6 -6 23 33 16 -2 1 -3
-2 -11 25 38 22 4 5 -1
-9 -13 26 41 23 5 4 -1
-13 -11 26 40 24 5 4 0
-10 -2 32 44 31 13 12 6
-21 0 37 52 34 17 15 9
-17 -1 37 49 29 11 11 7
-6 1 33 47 28 11 12 7
-12 -3 33 49 28 10 12 6
-9 -9 30 49 25 4 7 2
7 -6 29 49 30 8 9 2
2 -2 33 55 37 16 14 6
-2 2 38 61 41 20 18 8
-2 2 37 61 41 20 16 8
-8 1 40 65 44 25 21 11
-18 2 45 70 46 27 22 13
-16 0 44 70 44 23 20 14
-11 0 42 69 42 21 19 13
-7 1 42 69 40 22 17 9
-8 -6 38 70 37 16 11 5
14 6 42 76 44 23 17 9
17 15 49 83 52 33 24 14
4 10 50 87 55 35 25 14
5 12 49 88 58 36 27 16
0 14 53 89 61 43 30 19
-8 14 55 93 61 41 30 19
-2 12 54 92 58 39 27 19
-1 11 54 93 59 39 29 18
-10 11 57 99 59 39 28 19
-9 11 56 101 60 35 25 17
9 15 53 99 62 37 25 17
9 15 53 102 67 43 30 18
2 17 57 107 70 48 33 21
6 20 58 107 73 49 34 21
5 15 60 108 75 56 40 25
-15 10 61 111 75 56 42 27
-4 17 61 110 73 52 39 27
1 17 58 109 70 50 38 26
-2 13 57 110 67 46 33 24
11 21 55 109 66 41 30 21
24 26 55 110 70 44 32 22
21 27 55 112 73 50 35 23
18 27 60 114 75 55 38 26
14 29 60 114 78 56 40 27
7 28 63 115 81 63 47 35
-8 24 64 115 80 62 47 36
-1 26 61 111 75 55 43 33
8 27 59 110 73 53 43 33
4 22 56 107 67 47 38 29
13 27 53 102 63 40 31 25
27 37 52 103 67 45 36 28
14 33 54 104 68 47 37 27
8 29 54 101 69 48 35 26
7 29 53 98 68 48 36 27
1 28 53 96 69 53 41 32
-12 19 52 94 67 51 40 31
-9 17 46 85 59 44 33 27
0 22 45 81 58 43 35 28
-1 24 43 79 55 39 33 27
-4 20 36 72 47 28 24 19
9 25 34 68 47 29 26 20
7 30 35 69 52 35 31 22
0 25 35 64 50 33 26 20
4 24 32 59 46 30 23 19
3 22 31 54 46 34 28 22
-9 19 31 54 44 33 29 23
-2 18 25 44 36 25 23 19
1 18 21 38 34 23 24 19
-1 21 21 38 32 21 23 19
0 20 19 34 29 16 20 17
6 21 17 31 29 18 21 18
-2 21 18 30 31 22 24 20
-6 20 15 26 29 20 21 17
-6 17 13 21 25 16 16 13
-3 16 12 18 26 20 21 16
-16 15 12 17 22 16 18 14
-12 12 10 14 19 11 16 14
-13 8 8 8 16 9 17 13
-15 7 7 7 13 6 15 12
-6 8 3 1 7 -2 8 7
8 7 -2 -4 4 -4 6 4
3 7 0 -3 6 0 8 4
-5 6 0 -3 7 0 7 3
-6 6 0 -5 4 -5 3 1
-5 6 2 -5 7 2 9 5
-21 -1 2 -6 2 -2 6 3
-20 -7 -3 -12 -5 -11 -1 -1
-15 -7 -5 -13 -8 -14 -2 -2
-15 -6 -4 -13 -10 -15 -3 -3
-10 -7 -6 -16 -14 -21 -9 -6
-2 -13 -10 -18 -13 -19 -7 -7
-9 -14 -8 -17 -10 -16 -5 -6
-12 -10 -8 -18 -10 -16 -6 -8
-19 -13 -8 -19 -13 -19 -9 -9
-17 -8 -3 -16 -7 -9 0 -3
-31 -13 -3 -15 -11 -12 -2 -3
-28 -15 -7 -19 -17 -19 -7 -7
-18 -8 -6 -20 -17 -20 -7 -5
-22 -11 -9 -21 -18 -22 -8 -6
-16 -10 -9 -19 -21 -27 -12 -9
0 -4 -8 -19 -16 -21 -7 -5
-12 -12 -10 -20 -15 -18 -7 -7
-12 -4 -8 -19 -14 -18 -7 -7
0 3 -4 -15 -10 -14 -3 -4
-3 -3 -3 -16 -6 -6 4 1
-19 -5 -1 -14 -8 -8 2 1
-14 -6 -3 -16 -14 -16 -2 -2
-12 -5 -5 -19 -16 -18 -3 -3
-14 -5 -8 -21 -18 -20 -5 -5
-16 -10 -10 -22 -22 -28 -12 -10
4 -6 -13 -25 -22 -26 -12 -10
6 -1 -9 -21 -15 -18 -7 -5
-3 -4 -10 -21 -15 -19 -7 -7
-4 -7 -7 -18 -12 -16 -4 -5
-3 -8 -5 -16 -9 -9 2 0
-19 -10 -3 -15 -10 -10 2 -1
-15 -15 -7 -20 -15 -18 -3 -3
-9 -12 -7 -21 -16 -19 -4 -3
-10 -8 -8 -21 -19 -21 -5 -5
-10 -13 -12 -25 -25 -29 -13 -11
-7 -18 -14 -26 -24 -30 -14 -13
-11 -19 -11 -22 -19 -23 -11 -12
-11 -16 -9 -20 -17 -22 -10 -10
-12 -9 -6 -18 -14 -20 -8 -8
-8 -2 0 -13 -5 -8 3 1
-21 -7 2 -12 -7 -10 3 0
-17 -12 -3 -16 -14 -19 -4 -4
-7 -6 -3 -16 -13 -18 -3 -3
-8 -8 -4 -16 -16 -22 -6 -6
-5 -10 -7 -18 -20 -28 -12 -9
-3 -9 -8 -19 -19 -25 -10 -10
-12 -10 -4 -15 -14 -21 -8 -8
-15 -12 -2 -15 -15 -20 -11 -11
-17 -15 -4 -17 -18 -23 -15 -14
-14 -10 -1 -14 -11 -14 -5 -7
-22 -8 4 -9 -8 -10 -2 -3
-19 -11 1 -13 -14 -17 -6 -6
-7 -6 1 -13 -13 -16 -3 -4
-6 -7 1 -13 -15 -16 -5 -5
-5 -13 -5 -19 -22 -27 -15 -13
6 -9 -9 -20 -20 -26 -13 -14
-3 -3 -3 -15 -14 -19 -9 -10
-13 -5 0 -11 -11 -17 -7 -10
-15 -8 1 -11 -11 -17 -9 -11
-12 -6 1 -11 -9 -12 -3 -7
-21 -10 6 -8 -7 -10 -1 -3
-19 -17 3 -12 -12 -16 -5 -7
-13 -13 0 -14 -15 -17 -7 -8
-8 -11 1 -13 -14 -16 -5 -7
-10 -14 -4 -15 -17 -23 -11 -11
-1 -15 -4 -15 -14 -20 -8 -10
-6 -11 0 -12 -12 -16 -6 -9
-14 -11 2 -10 -10 -15 -7 -9
-17 -15 1 -11 -12 -18 -8 -11
-17 -14 1 -11 -9 -13 -4 -8
-40 -25 3 -11 -12 -17 -8 -10
-33 -23 1 -14 -15 -24 -12 -12
-20 -19 0 -14 -17 -24 -12 -12
-9 -12 2 -12 -16 -22 -11 -11
-5 -14 0 -14 -18 -27 -15 -13
1 -16 -6 -19 -20 -28 -17 -17
-8 -20 -6 -18 -18 -25 -16 -19
-19 -21 -2 -15 -17 -24 -15 -16
-15 -10 1 -11 -13 -22 -12 -13
-13 -9 2 -9 -10 -15 -7 -9
-30 -13 4 -9 -13 -18 -8 -9
-27 -16 2 -10 -15 -22 -12 -10
-19 -14 0 -13 -18 -24 -13 -12
-14 -12 0 -12 -20 -25 -14 -13
-4 -13 -2 -15 -22 -29 -18 -16
6 -17 -7 -19 -24 -29 -18 -19
-6 -17 -5 -16 -20 -24 -15 -17
-8 -16 -2 -14 -16 -20 -11 -14
-10 -14 -2 -14 -15 -20 -10 -13
-13 -14 0 -13 -12 -14 -5 -9
-28 -18 1 -13 -13 -16 -6 -9
-26 -20 -2 -17 -19 -23 -13 -12
-16 -15 -2 -15 -18 -24 -11 -11
-16 -15 -2 -16 -19 -25 -13 -12
-10 -14 -4 -19 -23 -31 -18 -17
-1 -14 -8 -21 -23 -29 -16 -17
-4 -9 -3 -16 -17 -22 -11 -14
-9 -11 0 -14 -15 -20 -10 -11
-11 -16 -1 -15 -14 -19 -10 -12
-8 -14 -1 -16 -13 -15 -6 -11
-18 -14 4 -12 -10 -13 -3 -8
-16 -15 -2 -17 -17 -23 -10 -12
-10 -12 -2 -19 -18 -23 -10 -12
-19 -18 -2 -19 -20 -25 -12 -15
-26 -28 -7 -23 -28 -35 -21 -23
-9 -22 -12 -27 -29 -36 -22 -24
-10 -19 -10 -24 -24 -30 -17 -21
-15 -18 -7 -21 -23 -28 -17 -19
-10 -12 -4 -19 -20 -25 -14 -18
-11 -13 -2 -19 -16 -19 -7 -13
-19 -14 0 -15 -16 -18 -7 -11
-20 -19 -3 -19 -20 -24 -12 -13
-16 -18 -5 -20 -22 -26 -12 -15
-17 -18 -4 -19 -23 -28 -13 -14
-19 -23 -9 -23 -30 -37 -23 -22
-9 -21 -12 -27 -30 -38 -23 -23
-8 -16 -7 -21 -24 -30 -18 -19
-15 -15 -4 -21 -23 -28 -18 -18
-16 -15 -4 -20 -22 -27 -17 -16
-11 -13 -3 -22 -19 -20 -10 -12
-24 -16 0 -18 -18 -20 -10 -12
-21 -21 -4 -23 -22 -26 -14 -14
-8 -15 -6 -24 -23 -25 -12 -13
-9 -16 -7 -25 -26 -28 -16 -17
-10 -20 -11 -28 -31 -36 -23 -21
-2 -20 -14 -30 -31 -37 -23 -22
-11 -23 -10 -27 -27 -32 -20 -21
-14 -23 -9 -26 -27 -31 -20 -21
-15 -20 -8 -25 -25 -29 -20 -18
-3 -10 -4 -22 -19 -19 -10 -11
-19 -16 -2 -20 -21 -21 -11 -12
-14 -19 -7 -25 -27 -29 -17 -16
-3 -13 -8 -26 -26 -29 -14 -15
-1 -11 -8 -26 -27 -29 -14 -16
0 -11 -9 -25 -30 -34 -19 -18
1 -15 -10 -27 -28 -33 -17 -19
-13 -19 -8 -22 -26 -31 -17 -18
-15 -20 -7 -25 -26 -30 -18 -19
-17 -17 -7 -24 -26 -30 -18 -18
-17 -15 -4 -21 -22 -25 -14 -14
-25 -21 -3 -21 -23 -26 -15 -15
-22 -23 -8 -27 -29 -33 -21 -18
-15 -21 -9 -30 -31 -34 -20 -18
-9 -24 -11 -30 -32 -34 -21 -20
-5 -25 -14 -31 -36 -41 -28 -25
8 -21 -16 -33 -34 -39 -26 -24
-5 -24 -13 -29 -30 -36 -24 -24
-15 -20 -5 -23 -24 -30 -20 -19
-15 -19 -5 -22 -25 -30 -19 -18
-15 -21 -3 -21 -21 -24 -15 -15
-25 -20 0 -18 -21 -26 -15 -14
-19 -20 -5 -22 -26 -32 -20 -17
-10 -18 -7 -25 -28 -34 -21 -18
-9 -16 -6 -24 -28 -32 -20 -17
-10 -22 -9 -27 -33 -38 -25 -22
0 -21 -11 -29 -31 -37 -23 -22
-3 -20 -8 -26 -27 -31 -18 -20
-13 -20 -6 -23 -24 -27 -16 -17
-12 -15 -5 -23 -24 -29 -17 -18
-12 -17 -5 -24 -22 -24 -13 -16
-24 -18 -1 -21 -22 -25 -14 -15
-12 -12 -4 -25 -28 -30 -19 -18
-5 -12 -6 -26 -27 -30 -17 -18
-10 -16 -6 -26 -29 -31 -19 -20
-7 -17 -10 -29 -35 -40 -25 -26
2 -17 -13 -32 -34 -38 -24 -26
-2 -14 -7 -25 -27 -30 -17 -20
-7 -13 -5 -23 -24 -27 -15 -19
-8 -14 -6 -25 -26 -29 -17 -20
-9 -14 -5 -24 -23 -22 -10 -15
-26 -22 -3 -22 -24 -25 -13 -16
-17 -19 -6 -26 -28 -32 -18 -18
-6 -15 -8 -27 -29 -32 -19 -19
-15 -19 -9 -27 -31 -35 -21 -21
-14 -20 -10 -28 -35 -41 -26 -25
-6 -19 -13 -30 -33 -39 -25 -25
-10 -16 -8 -26 -28 -32 -21 -22
-12 -15 -5 -24 -26 -29 -19 -21
-12 -17 -8 -25 -28 -32 -20 -23
-4 -18 -9 -27 -27 -29 -20 -22
-15 -21 -6 -26 -28 -31 -21 -21
-19 -27 -7 -26 -31 -36 -23 -21
-11 -24 -8 -28 -31 -35 -22 -21
-13 -23 -9 -29 -34 -38 -24 -24
-18 -26 -12 -30 -40 -46 -31 -29
-7 -23 -15 -31 -37 -42 -28 -28
-8 -18 -7 -27 -30 -34 -23 -23
-11 -17 -6 -24 -28 -32 -21 -23
-14 -18 -4 -24 -26 -29 -18 -20
-16 -17 -2 -22 -23 -23 -12 -16
-27 -18 2 -17 -20 -21 -10 -13
-16 -19 -1 -21 -26 -28 -14 -16
-9 -19 -5 -25 -28 -30 -16 -17
-10 -21 -7 -25 -31 -33 -17 -20
-11 -21 -9 -28 -35 -41 -25 -23
-4 -20 -12 -30 -34 -40 -24 -25
-9 -22 -9 -27 -29 -34 -21 -22
-14 -21 -6 -24 -27 -32 -20 -21
-9 -20 -8 -26 -28 -32 -21 -21
0 -13 -4 -22 -21 -23 -14 -15
-13 -14 1 -18 -20 -21 -12 -13
-13 -19 -5 -25 -27 -29 -18 -17
-9 -20 -9 -26 -30 -31 -18 -18
-11 -20 -7 -23 -29 -31 -17 -18
-10 -21 -10 -26 -33 -38 -24 -22
0 -19 -12 -30 -35 -39 -25 -24
-9 -19 -7 -25 -27 -30 -18 -20
-15 -23 -5 -23 -27 -30 -20 -20
-18 -27 -7 -25 -28 -33 -23 -23
-8 -19 -5 -24 -26 -29 -19 -20
-15 -16 -2 -21 -24 -27 -18 -18
-11 -14 -4 -22 -28 -30 -21 -18
-14 -15 -3 -21 -23 -25 -14 -14
-30 -17 0 -19 -23 -26 -14 -14
-21 -19 -5 -22 -28 -35 -21 -20
-8 -23 -12 -29 -34 -41 -26 -25
-12 -25 -11 -27 -32 -37 -25 -24
-21 -25 -7 -25 -29 -34 -23 -22
-20 -20 -3 -20 -25 -32 -21 -21
-4 -4 2 -16 -19 -23 -14 -14
-16 -8 3 -14 -18 -24 -14 -15
-13 -10 -1 -15 -24 -29 -19 -18
-2 -6 -2 -17 -25 -29 -17 -18
-7 -11 -2 -20 -26 -29 -19 -18
-7 -11 -3 -20 -27 -34 -21 -20
6 -5 -2 -17 -22 -28 -16 -17
-2 -7 -1 -14 -19 -24 -14 -15
-9 -7 1 -16 -16 -23 -14 -15
-11 -10 0 -17 -18 -25 -16 -17
-10 -8 1 -16 -16 -21 -13 -14
-20 -10 3 -14 -15 -22 -12 -15
-13 -15 -1 -20 -21 -29 -19 -19
0 -3 0 -18 -20 -27 -14 -16
-1 -2 2 -16 -17 -25 -12 -13
-11 -10 0 -17 -20 -30 -16 -16
5 -4 -4 -18 -18 -25 -12 -14
4 1 -5 -18 -14 -20 -8 -11
2 1 -5 -15 -12 -17 -7 -8
2 1 -6 -15 -12 -18 -7 -9
1 3 -5 -14 -9 -12 -2 -5
-11 -1 -1 -11 -9 -15 -5 -7
-4 -2 -5 -15 -14 -21 -10 -11
-3 -3 -6 -18 -16 -24 -11 -13
-7 -5 -4 -15 -17 -24 -12 -13
-8 -10 -7 -17 -22 -30 -18 -17
9 -6 -10 -21 -22 -28 -16 -16
11 -1 -5 -16 -16 -20 -10 -11
3 -8 -6 -17 -18 -22 -12 -13
2 -10 -6 -17 -18 -22 -12 -14
-3 -11 -4 -15 -13 -17 -7 -10
-18 -15 -3 -15 -16 -21 -11 -12
-10 -17 -10 -22 -25 -30 -19 -18
-3 -18 -13 -26 -28 -33 -19 -19
-10 -21 -13 -27 -31 -36 -22 -20
-9 -23 -15 -29 -35 -41 -26 -22
6 -16 -18 -32 -35 -40 -25 -23
8 -12 -14 -28 -30 -33 -20 -19
3 -13 -11 -26 -28 -30 -18 -17
0 -11 -9 -25 -26 -28 -17 -16
-2 -12 -5 -20 -20 -20 -11 -11
-14 -12 0 -16 -17 -19 -9 -9
-6 -6 -2 -20 -21 -25 -14 -13
-2 -12 -5 -21 -25 -28 -16 -15
-12 -19 -6 -23 -28 -33 -19 -19
-14 -21 -7 -26 -33 -40 -26 -23
-1 -19 -9 -28 -32 -38 -26 -24
-5 -17 -5 -25 -28 -31 -21 -21
-7 -16 -4 -22 -25 -28 -18 -20
-15 -25 -6 -26 -28 -31 -20 -20
-15 -26 -5 -27 -27 -28 -16 -17
-19 -22 -2 -23 -25 -25 -15 -15
-15 -23 -7 -27 -31 -32 -20 -20
-11 -18 -6 -26 -28 -27 -15 -17
-27 -23 -4 -24 -30 -29 -16 -18
-28 -27 -7 -27 -37 -39 -26 -24
-4 -21 -11 -31 -37 -40 -23 -24
-9 -22 -7 -28 -34 -33 -21 -21
-21 -26 -6 -25 -34 -33 -23 -21
-21 -24 -4 -24 -31 -31 -21 -20
-19 -22 -3 -23 -25 -24 -15 -16
-28 -24 0 -20 -24 -23 -16 -16
-18 -22 -3 -21 -27 -28 -19 -18
-10 -16 -2 -21 -28 -29 -19 -20
-11 -20 0 -17 -30 -32 -22 -23
-15 -28 3 -13 -37 -42 -33 -31
-5 -27 11 -2 -33 -43 -34 -32
-7 -25 23 14 -25 -35 -32 -31
-16 -27 30 28 -14 -30 -32 -32
-22 -25 40 43 -1 -24 -30 -31
-18 -14 55 69 24 -6 -15 -20
-23 -4 76 107 50 10 -7 -14
-3 8 93 132 70 20 0 -8
9 19 96 138 90 38 14 1
12 29 85 131 107 60 29 15
24 47 51 93 115 79 49 33
43 68 19 72 144 116 83 60
48 89 0 74 187 167 121 92
54 107 -18 72 227 217 158 124
64 128 -35 75 270 263 193 154
84 152 -59 77 316 320 235 188
87 177 -94 72 351 367 273 222
110 212 -136 50 382 407 310 258
128 242 -182 13 387 430 341 289
130 253 -219 -33 359 423 348 304
121 222 -234 -77 297 379 321 287
120 181 -245 -116 217 320 287 261
104 151 -253 -163 136 259 254 241
92 127 -260 -223 37 178 211 211
79 105 -266 -294 -85 78 157 177
72 90 -259 -322 -157 14 123 154
53 70 -236 -294 -163 -12 98 134
43 52 -214 -267 -159 -34 70 107
36 36 -190 -235 -146 -39 52 87
33 25 -166 -204 -133 -40 40 72
29 12 -147 -180 -126 -45 28 59
40 6 -131 -160 -111 -39 24 49
33 3 -113 -136 -97 -33 20 42
22 5 -95 -116 -84 -29 15 35
14 1 -80 -100 -74 -29 9 25
8 3 -63 -85 -64 -25 6 17
-8 2 -45 -67 -53 -23 2 13
-12 -6 -38 -57 -49 -28 -5 5
-7 -11 -32 -47 -45 -28 -9 0
-3 -7 -23 -36 -39 -25 -9 -1
-4 -9 -17 -28 -37 -26 -12 -4
10 -7 -14 -26 -31 -22 -8 -4
9 -6 -6 -19 -25 -14 -3 -1
3 -6 -2 -14 -24 -14 -4 -2
5 -5 1 -10 -22 -13 -5 -3
8 -6 4 -8 -19 -10 -2 -1
-8 -14 7 -7 -21 -14 -7 -5
-4 -13 7 -5 -20 -19 -11 -6
-1 -10 8 -3 -19 -17 -11 -8
-5 -13 8 -1 -20 -18 -14 -11
-8 -15 8 -1 -23 -24 -18 -14
0 -13 7 -2 -21 -22 -16 -13
-8 -11 12 2 -16 -12 -9 -8
-14 -11 14 5 -13 -10 -9 -7
-9 -10 15 4 -13 -13 -12 -9
0 -5 19 9 -7 -4 -5 -4
-16 -11 22 13 -7 -4 -6 -3
-11 -15 17 11 -11 -14 -13 -9
-3 -16 15 8 -13 -15 -14 -12
-11 -22 14 8 -15 -16 -17 -13
-15 -25 14 8 -16 -20 -19 -14
-9 -22 14 7 -13 -17 -16 -13
-13 -19 16 10 -12 -12 -13 -11
-9 -11 18 14 -8 -9 -12 -8
-16 -15 21 14 -8 -10 -12 -9
-22 -19 24 18 -3 -1 -5 -5
-30 -22 25 21 -4 -4 -8 -8
-16 -17 24 20 -6 -10 -12 -10
-5 -10 25 21 -4 -8 -10 -10
-12 -13 23 21 -5 -10 -14 -13
-9 -15 21 21 -9 -15 -19 -16
7 -11 19 18 -7 -12 -15 -15
0 -9 23 21 -3 -6 -12 -12
-6 -7 26 25 -2 -5 -10 -11
-10 -9 25 24 -2 -7 -12 -12
-6 -6 28 27 2 0 -6 -8
-17 -9 31 31 3 1 -7 -8
-9 -13 26 26 -1 -8 -12 -12
-4 -11 26 26 0 -6 -11 -11
-6 -13 24 30 1 -4 -10 -10
-9 -17 21 26 -2 -9 -15 -13
7 -11 19 24 0 -8 -12 -12
-5 -8 23 29 4 0 -7 -7
-8 -5 30 36 9 4 -4 -3
-2 -4 34 39 11 5 -2 -1
-2 -6 33 39 14 10 1 2
-7 -4 34 42 14 10 0 2
-6 -6 35 43 15 7 -1 1
-7 -5 34 42 13 6 -1 1
-7 -9 32 43 11 4 -3 -3
-6 -13 27 40 6 -2 -8 -7
6 -10 26 38 8 0 -6 -6
6 -6 30 43 14 8 0 -2
-8 -11 31 46 16 8 0 -1
-12 -8 32 47 17 9 -1 0
-8 -6 36 50 22 16 5 4
-26 -8 41 57 24 16 4 4
-20 -2 44 62 27 14 2 4
-5 1 41 60 27 14 2 2
-4 -3 39 61 26 13 1 0
2 -5 33 59 20 7 -4 -4
12 -3 34 58 22 10 -1 -3
4 2 41 65 31 22 7 5
-9 2 47 72 36 26 11 8
-4 12 50 77 39 28 12 11
4 19 54 81 46 36 19 16
-11 13 56 88 45 34 15 14
-7 11 53 86 42 27 9 9
3 13 51 85 43 30 11 9
-2 11 50 88 43 28 9 8
1 8 46 85 39 22 3 4
12 10 44 84 41 26 9 6
6 13 50 90 45 34 15 11
6 19 58 101 53 43 21 17
4 20 59 101 56 46 24 19
-1 15 62 103 62 52 29 22
-10 13 63 108 63 51 26 21
-1 15 61 108 61 44 21 19
3 15 58 106 60 43 20 17
3 14 60 111 61 44 22 20
10 17 60 110 59 40 19 17
23 20 57 109 61 46 23 20
14 20 59 112 65 50 28 22
9 19 62 116 68 53 30 24
11 19 62 116 68 55 31 24
13 21 61 115 70 59 33 26
-1 24 67 123 74 61 33 28
5 24 64 120 71 54 28 24
12 21 61 116 67 51 25 22
12 19 59 117 65 47 22 18
11 18 56 114 62 42 18 15
19 19 54 111 62 44 19 15
9 20 58 114 66 50 24 19
0 18 59 116 67 53 25 19
3 22 61 114 69 54 27 21
7 26 63 116 73 61 33 27
-5 25 66 120 74 59 31 26
3 23 62 113 68 51 24 20
7 22 56 105 63 45 20 15
4 20 55 103 60 42 17 15
6 15 50 99 54 36 13 11
7 14 46 94 53 36 15 13
8 23 50 96 56 42 21 18
6 28 54 98 58 44 24 23
0 28 56 96 59 46 26 25
7 33 57 96 64 54 33 30
-8 30 57 95 61 51 30 30
-6 23 48 84 52 39 21 21
4 23 41 75 49 37 21 19
6 26 39 72 46 35 19 19
11 25 36 66 41 28 15 16
24 27 32 61 38 28 16 16
13 29 35 61 41 33 20 20
1 22 34 57 40 32 19 19
-1 21 32 51 36 28 17 17
1 25 33 49 37 35 22 21
-12 23 33 50 38 33 23 23
-1 25 27 42 31 23 15 18
14 29 21 35 27 21 13 15
12 27 19 31 25 20 13 14
8 20 14 25 18 12 8 10
16 20 10 19 15 10 6 8
3 17 11 16 14 13 8 9
-8 11 9 13 12 10 4 6
-8 7 9 9 10 7 3 5
-9 6 9 7 11 11 3 6
-21 3 9 7 8 6 -2 3
-10 0 5 2 3 -1 -7 -1
5 8 4 1 2 -3 -7 -2
4 10 5 1 2 -1 -6 0
-3 -2 -1 -6 -6 -10 -13 -6
7 2 -3 -9 -10 -11 -12 -6
1 1 -3 -11 -11 -8 -9 -5
-9 0 -2 -11 -13 -11 -12 -6
-6 1 1 -9 -10 -8 -11 -4
-13 -1 2 -10 -7 -5 -7 -1
-29 -4 4 -7 -8 -9 -9 -3
-16 -2 -1 -12 -15 -17 -18 -8
-11 -5 -3 -13 -15 -18 -17 -9
-10 -2 -4 -15 -16 -18 -18 -10
-6 -4 -6 -18 -21 -23 -20 -12
2 -6 -11 -23 -24 -22 -19 -13
-1 -7 -8 -22 -23 -17 -15 -10
-5 -9 -4 -19 -20 -14 -13 -7
-13 -6 -2 -16 -18 -12 -12 -6
-9 0 0 -13 -14 -7 -8 -2
-25 -11 -1 -13 -16 -11 -12 -5
-17 -12 -5 -18 -21 -20 -21 -11
-3 -7 -6 -19 -22 -20 -20 -13
-2 -6 -5 -16 -22 -21 -20 -12
4 -6 -9 -18 -26 -25 -24 -15
13 -6 -12 -23 -27 -24 -22 -15
4 -3 -9 -20 -23 -17 -18 -11
1 -1 -7 -21 -22 -16 -16 -8
1 -1 -6 -21 -22 -16 -15 -8
2 0 -3 -18 -16 -8 -9 -2
-15 -4 -1 -15 -15 -10 -11 -3
-12 -7 -4 -17 -20 -19 -19 -8
-2 -3 -6 -21 -21 -19 -20 -11
-8 -8 -5 -21 -22 -20 -21 -12
-10 -12 -9 -24 -30 -29 -30 -18
10 -5 -13 -29 -31 -29 -29 -19
-4 -3 -8 -24 -26 -20 -23 -15
-16 -6 -4 -20 -22 -16 -19 -12
-19 -11 -6 -23 -23 -19 -20 -13
-14 -10 -4 -21 -18 -13 -15 -9
-19 -12 -1 -18 -17 -14 -16 -10
-21 -18 -6 -22 -24 -24 -25 -17
-6 -5 -4 -19 -21 -21 -24 -15
-4 -2 -3 -19 -22 -21 -24 -15
-5 -5 -8 -22 -29 -31 -32 -22
4 -4 -9 -25 -29 -28 -29 -20
-1 -7 -9 -24 -26 -22 -24 -16
-11 -6 -4 -20 -24 -20 -23 -14
-8 -2 -2 -19 -21 -18 -20 -12
-1 2 2 -16 -15 -9 -13 -6
-9 1 5 -11 -13 -10 -13 -6
-7 -4 1 -15 -16 -16 -18 -10
-7 -6 -2 -17 -16 -14 -17 -12
-17 -6 2 -13 -15 -13 -19 -11
-16 -7 -2 -16 -22 -23 -26 -15
-3 -8 -8 -22 -24 -27 -27 -18
-8 -11 -6 -20 -22 -20 -22 -14
-16 -16 -2 -16 -21 -19 -23 -14
-12 -14 -3 -19 -22 -20 -24 -18
0 -4 1 -15 -13 -11 -16 -11
-9 -2 6 -10 -14 -10 -16 -9
-4 -6 2 -13 -17 -17 -21 -13
-6 -13 -3 -18 -20 -19 -21 -16
-9 -10 -3 -17 -19 -19 -23 -16
-8 -10 -4 -18 -23 -24 -27 -19
4 -6 -7 -21 -25 -25 -26 -20
-2 -4 -2 -18 -21 -19 -21 -14
-7 -8 -1 -16 -18 -18 -21 -14
-5 -7 0 -14 -18 -19 -22 -15
-6 -3 3 -10 -13 -11 -18 -10
-21 -6 6 -6 -12 -12 -19 -9
-16 -13 2 -11 -17 -21 -26 -16
-3 -12 -1 -13 -19 -20 -25 -17
-5 -9 -2 -14 -21 -22 -28 -19
-4 -8 -3 -15 -26 -29 -33 -22
11 -9 -7 -20 -27 -28 -32 -23
2 -15 -5 -18 -26 -26 -31 -21
-1 -10 -3 -17 -23 -24 -30 -21
-6 -12 0 -14 -21 -22 -28 -21
-7 -2 6 -8 -14 -13 -21 -13
-18 -3 10 -4 -13 -14 -23 -13
-13 -9 3 -9 -18 -23 -29 -20
-3 -6 2 -10 -18 -20 -26 -19
-7 -6 2 -11 -17 -19 -25 -18
-8 -11 -1 -14 -24 -27 -32 -23
11 -4 -4 -17 -23 -25 -29 -22
4 -4 1 -14 -20 -18 -23 -16
-8 -12 0 -15 -21 -20 -25 -17
-7 -16 -2 -16 -21 -20 -25 -19
-4 -13 1 -15 -18 -16 -22 -15
-14 -9 4 -10 -17 -16 -24 -16
-10 -13 0 -13 -20 -24 -29 -21
-4 -12 -1 -14 -21 -24 -28 -22
-4 -12 1 -13 -21 -23 -28 -20
-3 -15 -3 -18 -26 -30 -33 -25
11 -10 -8 -24 -29 -31 -33 -26
13 -5 -3 -18 -23 -22 -24 -18
1 -4 1 -15 -18 -18 -22 -15
0 -6 0 -17 -20 -20 -24 -20
-5 -13 0 -17 -18 -18 -23 -18
-27 -22 0 -17 -21 -22 -28 -21
-24 -22 -2 -19 -23 -27 -33 -25
-15 -21 -4 -21 -25 -28 -32 -24
-6 -12 -4 -20 -27 -29 -35 -26
1 -7 -5 -20 -29 -34 -38 -28
6 -11 -10 -26 -32 -37 -40 -31
5 -7 -7 -24 -29 -30 -33 -26
-5 -7 -2 -20 -25 -25 -29 -24
-3 -6 -2 -20 -25 -27 -30 -24
-2 -11 2 -17 -20 -19 -24 -19
-21 -15 3 -12 -20 -21 -27 -20
-19 -21 -1 -18 -26 -31 -36 -27
-12 -20 -3 -20 -25 -29 -33 -25
-20 -17 0 -17 -25 -29 -33 -25
-15 -15 -5 -21 -33 -39 -40 -29
4 -10 -11 -27 -35 -39 -39 -29
-5 -14 -8 -25 -31 -32 -35 -25
-15 -19 -5 -22 -29 -29 -31 -24
-12 -15 -7 -24 -31 -31 -33 -25
-11 -16 -5 -22 -27 -25 -28 -22
-17 -14 1 -16 -22 -22 -25 -19
-5 -11 1 -18 -23 -26 -29 -20
5 -7 -3 -21 -24 -27 -29 -22
-2 -10 -4 -20 -26 -28 -29 -22
-5 -17 -8 -26 -33 -38 -39 -30
12 -10 -10 -27 -33 -35 -35 -29
3 -7 -5 -23 -28 -28 -31 -23
-2 -8 -3 -22 -27 -26 -29 -23
-2 -9 -1 -20 -25 -25 -27 -21
-4 -13 -1 -20 -22 -21 -23 -19
-12 -15 0 -18 -22 -21 -27 -20
-7 -16 -1 -20 -23 -26 -30 -23
-4 -13 -3 -22 -26 -28 -30 -24
-6 -14 -5 -23 -28 -30 -31 -26
-8 -16 -7 -26 -34 -38 -38 -31
11 -9 -9 -27 -33 -35 -36 -29
9 -8 -6 -24 -29 -29 -31 -25
-8 -19 -6 -25 -31 -32 -35 -28
-13 -19 -6 -25 -32 -33 -36 -28
-14 -16 -4 -22 -26 -26 -30 -23
-31 -19 0 -18 -25 -26 -29 -22
-16 -20 -4 -22 -28 -32 -35 -26
-4 -17 -7 -23 -30 -34 -36 -28
-2 -11 -8 -25 -31 -35 -38 -29
0 -12 -7 -25 -34 -40 -41 -32
7 -12 -12 -31 -38 -42 -42 -33
-4 -17 -10 -28 -34 -34 -37 -29
-12 -21 -6 -25 -32 -33 -37 -28
-13 -19 -6 -25 -32 -35 -38 -29
-7 -17 -4 -24 -29 -29 -33 -25
-21 -23 -2 -22 -28 -30 -34 -26
-17 -27 -5 -25 -31 -36 -38 -29
-9 -28 -8 -27 -31 -35 -37 -30
-14 -33 -8 -27 -34 -35 -38 -31
-11 -26 -10 -28 -36 -40 -40 -33
5 -19 -11 -28 -34 -36 -35 -29
6 -13 -6 -22 -29 -28 -29 -23
7 -5 -2 -20 -26 -25 -28 -21
-1 -10 -3 -21 -28 -28 -32 -22
1 -11 -2 -20 -26 -25 -29 -21
-10 -15 -1 -16 -26 -26 -30 -23
-3 -15 -4 -20 -29 -33 -37 -28
10 -12 -9 -26 -32 -35 -38 -31
9 -14 -10 -26 -34 -37 -38 -33
3 -16 -8 -24 -34 -38 -39 -32
11 -15 -8 -25 -32 -34 -35 -28
2 -16 -7 -24 -30 -29 -30 -25
-9 -17 -3 -22 -28 -27 -30 -25
-11 -20 -3 -22 -29 -28 -31 -25
-10 -17 -4 -23 -26 -26 -29 -26
-17 -19 -2 -19 -26 -27 -31 -26
-9 -18 -4 -20 -30 -33 -36 -30
-3 -17 -6 -22 -29 -32 -37 -29
-14 -18 -4 -20 -28 -31 -37 -30
-15 -19 -7 -22 -34 -41 -44 -33
7 -14 -12 -28 -37 -42 -43 -33
10 -12 -9 -26 -33 -35 -37 -30
-1 -12 -6 -23 -31 -32 -35 -28
-6 -17 -4 -22 -31 -32 -35 -28
-10 -20 -4 -22 -29 -29 -32 -27
-18 -19 0 -18 -27 -29 -33 -26
-9 -25 -5 -23 -33 -36 -40 -33
-5 -28 -8 -25 -35 -38 -41 -34
-6 -19 -6 -22 -32 -36 -39 -32
-6 -20 -8 -24 -36 -40 -44 -34
1 -20 -12 -29 -37 -40 -44 -35
-1 -19 -9 -26 -33 -33 -39 -31
-8 -22 -8 -25 -34 -32 -38 -31
-9 -26 -7 -25 -34 -33 -39 -31
0 -18 -4 -23 -27 -26 -31 -26
-10 -16 0 -17 -23 -23 -29 -24
-4 -18 -3 -21 -28 -31 -34 -29
-2 -19 -5 -24 -29 -33 -36 -30
-3 -12 -4 -20 -29 -33 -35 -29
2 -9 -2 -18 -29 -34 -36 -28
11 -7 -5 -22 -32 -34 -37 -30
9 -5 -3 -19 -28 -28 -32 -25
7 1 2 -15 -23 -23 -26 -21
9 2 2 -15 -22 -22 -28 -21
14 4 1 -16 -19 -18 -25 -21
0 -3 3 -15 -20 -19 -27 -23
-4 -11 0 -18 -26 -28 -33 -29
-1 -11 -2 -20 -25 -28 -34 -30
-1 -10 -5 -20 -27 -31 -35 -31
-2 -9 -9 -21 -30 -35 -39 -33
14 -1 -13 -23 -30 -33 -36 -30
15 4 -11 -20 -27 -26 -32 -26
10 4 -11 -18 -24 -24 -29 -23
10 5 -9 -17 -22 -22 -28 -21
12 3 -7 -17 -20 -17 -24 -19
-5 -8 -4 -14 -19 -16 -24 -20
1 -2 -3 -14 -18 -20 -26 -21
11 2 -3 -15 -19 -21 -26 -22
8 -1 -4 -14 -21 -23 -27 -22
5 -2 -8 -20 -28 -31 -34 -27
19 -5 -11 -24 -31 -32 -34 -28
12 -8 -10 -22 -31 -27 -30 -25
5 -8 -9 -20 -30 -28 -32 -26
12 -3 -5 -17 -27 -26 -32 -26
11 -8 -5 -18 -23 -22 -28 -24
-6 -18 -5 -18 -25 -23 -30 -27
-4 -23 -10 -23 -31 -32 -36 -32
3 -19 -10 -24 -31 -32 -36 -31
7 -16 -11 -25 -34 -32 -35 -29
12 -12 -13 -26 -37 -36 -38 -31
24 -11 -16 -30 -39 -37 -38 -30
16 -11 -13 -27 -37 -31 -33 -27
9 -9 -10 -23 -35 -30 -32 -26
5 -11 -8 -23 -34 -31 -35 -28
5 -15 -9 -23 -30 -27 -31 -26
-12 -22 -6 -21 -29 -27 -32 -29
2 -20 -6 -21 -30 -32 -35 -31
17 -10 -5 -20 -27 -26 -31 -30
9 -16 -6 -20 -32 -31 -36 -33
7 -20 -9 -24 -40 -40 -44 -40
14 -19 -16 -30 -42 -41 -41 -38
12 -14 -12 -28 -39 -34 -36 -33
3 -16 -10 -26 -38 -34 -36 -33
-2 -21 -11 -28 -42 -37 -41 -37
-5 -29 -12 -29 -39 -34 -38 -36
-19 -28 -6 -23 -36 -31 -37 -34
-8 -23 -9 -25 -38 -37 -42 -37
1 -19 -11 -26 -38 -38 -41 -37
-3 -21 -10 -26 -38 -38 -41 -37
0 -24 -12 -27 -42 -43 -45 -40
14 -28 -15 -31 -43 -43 -45 -40
7 -28 -13 -31 -43 -40 -41 -37
0 -26 -9 -27 -38 -36 -38 -35
-4 -19 -6 -25 -36 -35 -38 -35
-1 -14 -3 -22 -30 -29 -32 -30
-10 -16 0 -17 -27 -27 -31 -29
-3 -17 -3 -18 -30 -34 -39 -36
0 -21 -2 -17 -33 -36 -42 -40
-9 -24 3 -10 -31 -37 -42 -40
-6 -24 11 -1 -32 -41 -47 -43
10 -25 15 8 -27 -37 -46 -43
6 -30 21 20 -20 -32 -44 -44
0 -28 29 33 -8 -25 -42 -43
1 -22 36 47 9 -16 -35 -38
10 -8 54 77 37 4 -21 -26
3 6 81 120 69 23 -9 -18
6 10 93 142 89 34 -5 -14
19 21 90 145 108 53 10 -3
28 38 75 129 124 75 32 16
38 53 37 95 134 99 54 35
69 81 9 81 173 147 94 69
85 104 -13 76 217 205 138 104
86 118 -31 71 258 253 174 134
101 145 -49 69 308 307 213 166
114 172 -75 62 356 367 261 207
110 202 -109 44 392 410 300 243
115 231 -152 5 410 434 327 268
111 247 -191 -45 397 433 338 285
106 234 -214 -87 353 403 322 277
112 199 -225 -119 279 347 283 253
115 165 -236 -164 187 277 246 228
101 134 -242 -211 86 202 205 203
84 112 -247 -271 -45 101 156 171
71 89 -249 -315 -166 6 106 138
73 74 -232 -298 -187 -25 84 120
51 58 -203 -258 -170 -36 63 100
46 44 -182 -227 -157 -46 39 74
47 31 -162 -205 -142 -48 26 58
41 18 -144 -181 -132 -50 14 44
40 7 -125 -158 -123 -52 2 31
34 -7 -112 -140 -111 -48 -3 22
20 -9 -97 -121 -99 -42 -5 18
21 0 -80 -101 -84 -36 -6 15
24 5 -65 -84 -72 -33 -10 6
24 3 -51 -71 -59 -26 -8 5
5 -7 -41 -58 -53 -25 -12 -1
2 -16 -37 -50 -51 -31 -20 -11
14 -14 -30 -39 -43 -24 -18 -12
19 -12 -24 -31 -36 -21 -18 -14
19 -10 -17 -24 -32 -23 -22 -16
29 -8 -15 -22 -29 -20 -19 -16
21 -5 -5 -15 -23 -13 -15 -12
12 -3 4 -6 -17 -8 -11 -8
6 -3 5 -4 -16 -10 -13 -10
7 -7 7 -2 -12 -7 -10 -9
-2 -15 9 2 -10 -9 -15 -13
6 -15 8 4 -11 -14 -19 -16
10 -9 7 3 -11 -13 -19 -18
9 -12 7 4 -10 -13 -18 -19
3 -15 5 2 -13 -18 -23 -21
17 -10 4 -1 -15 -17 -20 -20
17 -7 6 2 -13 -13 -18 -18
12 -7 10 5 -11 -14 -19 -17
12 -5 12 6 -9 -13 -21 -18
12 -9 16 10 -4 -7 -15 -13
-7 -16 17 14 -4 -10 -20 -16
-6 -19 13 10 -8 -18 -26 -23
-1 -18 10 8 -10 -17 -27 -26
-2 -18 11 10 -8 -15 -23 -24
1 -16 10 8 -10 -19 -26 -26
11 -12 9 6 -10 -16 -23 -25
8 -13 13 10 -6 -9 -18 -19
3 -14 15 12 -5 -9 -18 -20
2 -15 16 12 -5 -10 -19 -21
-1 -17 18 16 -1 -3 -14 -17
-17 -27 20 20 1 -5 -17 -19
-15 -27 17 18 -3 -12 -23 -24
-6 -22 14 17 -3 -11 -23 -23
-5 -17 15 19 -1 -9 -21 -22
2 -17 12 15 -4 -14 -24 -25
16 -13 11 13 -5 -11 -22 -23
16 -12 15 17 0 -4 -17 -17
11 -16 16 19 1 -3 -16 -17
1 -21 16 18 0 -3 -15 -18
0 -20 18 20 5 3 -9 -13
-21 -23 21 26 10 4 -8 -11
-10 -10 23 30 10 -1 -11 -13
19 10 28 35 16 5 -5 -8
17 5 25 35 15 4 -8 -10
13 -3 20 30 10 -2 -13 -14
28 -3 17 26 8 -1 -12 -15
31 4 21 31 13 6 -5 -8
21 5 24 35 16 10 -3 -5
13 1 26 36 18 12 -1 -5
13 -1 29 40 23 18 4 -1
0 -4 31 45 26 18 4 -1
2 -5 29 45 23 11 -2 -5
10 0 29 46 26 15 2 -3
2 -3 29 47 27 15 0 -4
2 -12 21 40 17 3 -11 -12
15 -12 19 37 15 3 -11 -12
12 -5 24 42 20 11 -3 -6
6 -8 24 44 20 12 -3 -6
13 -2 26 47 23 16 0 -3
15 5 31 54 32 26 10 5
5 5 35 60 36 26 9 5
1 -5 31 58 32 20 3 0
3 -3 32 60 35 21 2 0
4 -4 32 62 37 23 4 0
2 -11 27 57 32 15 -4 -6
10 -7 26 57 32 17 -2 -5
11 -1 30 63 36 26 3 -1
11 2 33 68 40 29 6 2
16 8 38 73 45 33 9 5
22 14 45 81 54 44 19 14
14 16 50 89 59 45 19 16
18 14 46 88 58 42 17 13
21 11 43 86 58 43 18 11
17 10 43 89 59 42 17 11
21 11 40 88 56 39 14 8
28 10 36 85 55 40 13 7
23 12 41 90 59 45 18 11
23 16 44 93 64 49 21 14
18 12 46 97 67 51 22 15
23 16 49 101 73 61 31 21
11 17 55 109 78 64 32 23
16 18 53 108 78 59 27 18
26 19 53 109 80 63 30 20
25 17 51 111 81 63 30 20
24 15 48 109 78 58 25 16
33 16 46 107 78 60 26 17
25 17 49 111 80 64 29 20
24 19 52 114 84 68 32 23
22 20 51 114 83 66 31 21
17 20 53 116 86 70 36 25
9 19 56 119 88 70 35 24
19 22 53 117 85 64 30 20
30 29 52 118 86 67 31 23
30 27 50 115 85 65 31 21
31 25 46 112 80 59 25 17
36 23 44 109 79 62 28 19
25 24 47 111 82 68 32 24
21 27 51 113 82 68 32 26
22 29 53 115 84 69 33 27
19 29 56 117 87 73 39 31
8 24 59 119 89 73 37 30
15 23 53 113 82 64 30 23
21 20 49 109 80 64 29 23
26 24 47 106 79 63 30 24
21 24 43 101 72 57 25 20
25 25 40 96 71 57 28 22
30 29 42 95 74 63 33 26
22 25 42 93 72 62 32 26
16 21 38 87 67 57 28 23
16 20 36 82 63 56 30 23
-2 18 39 85 64 54 28 23
7 28 39 83 63 51 26 23
10 26 36 79 62 52 26 23
5 21 34 74 58 49 24 21
10 18 26 64 49 38 17 15
23 20 18 52 42 35 14 11
25 25 20 51 43 39 18 15
20 24 20 48 40 39 20 16
14 18 18 42 35 33 16 14
11 20 21 43 37 39 22 18
-7 19 24 44 37 35 21 18
-1 19 19 38 30 25 13 14
5 15 11 30 25 21 9 9
-2 8 8 25 20 16 5 6
2 13 5 20 14 9 -1 3
12 16 4 16 13 12 1 4
11 17 6 16 14 15 4 7
12 17 6 14 12 15 4 7
10 15 6 10 9 13 3 6
11 15 6 10 10 16 5 9
-3 8 7 11 8 12 2 5
-7 2 2 4 1 2 -5 0
-4 -1 -2 0 -2 -1 -7 -4
-7 -4 -4 -3 -5 -4 -11 -6
-4 -4 -7 -7 -12 -13 -18 -13
14 2 -9 -9 -14 -11 -18 -11
10 1 -6 -8 -11 -8 -15 -8
5 3 -3 -8 -11 -6 -13 -7
11 4 -3 -8 -11 -7 -13 -7
12 5 -2 -8 -10 -2 -8 -5
-2 4 1 -4 -8 -2 -7 -3
-2 -2 -4 -10 -13 -9 -12 -7
4 -2 -9 -14 -17 -13 -15 -11
2 -4 -7 -14 -18 -12 -15 -11
-6 -10 -11 -16 -23 -21 -22 -16
4 -8 -14 -19 -26 -21 -23 -16
0 -10 -13 -20 -24 -17 -21 -14
-6 -8 -8 -18 -20 -13 -17 -11
-2 -5 -8 -17 -19 -12 -15 -9
-3 -6 -7 -17 -17 -7 -10 -7
-18 -11 -4 -14 -17 -9 -10 -8
-13 -13 -8 -18 -21 -14 -15 -12
4 -4 -9 -17 -20 -15 -14 -11
8 -3 -9 -19 -22 -15 -16 -13
5 -7 -11 -22 -25 -21 -21 -15
11 -6 -14 -25 -28 -22 -22 -16
6 -2 -9 -19 -22 -14 -17 -12
-2 -3 -6 -19 -22 -13 -17 -11
-7 -6 -8 -20 -25 -18 -21 -13
-3 -4 -7 -18 -21 -12 -16 -9
-15 -7 -4 -14 -20 -13 -15 -9
-7 -5 -6 -17 -23 -18 -17 -11
4 -1 -8 -19 -23 -17 -16 -11
-5 -5 -10 -20 -24 -18 -19 -13
-8 -11 -11 -22 -28 -24 -24 -17
2 -10 -13 -25 -29 -25 -25 -17
3 -9 -14 -24 -28 -22 -24 -17
1 -8 -11 -23 -28 -21 -23 -16
-9 -7 -9 -20 -27 -22 -24 -15
-12 -12 -6 -17 -23 -17 -19 -11
-29 -21 -5 -14 -22 -16 -19 -11
-19 -17 -9 -19 -27 -24 -23 -16
-2 -11 -11 -20 -27 -23 -23 -17
-5 -12 -10 -19 -26 -21 -22 -16
-5 -13 -11 -21 -30 -26 -26 -18
0 -12 -11 -23 -26 -22 -22 -14
-4 -10 -9 -20 -23 -16 -16 -11
1 -2 -5 -16 -21 -13 -14 -9
6 2 -1 -11 -20 -12 -14 -7
6 3 -1 -11 -19 -10 -11 -5
-8 -3 1 -9 -18 -11 -11 -6
-8 -7 -4 -12 -22 -18 -16 -10
0 -6 -6 -16 -24 -20 -17 -13
-1 -9 -7 -16 -24 -19 -18 -15
-4 -12 -8 -16 -25 -23 -22 -17
7 -7 -8 -18 -22 -19 -18 -13
6 -4 -4 -13 -17 -11 -13 -9
-2 -10 -4 -15 -19 -12 -16 -11
-3 -13 -5 -16 -21 -16 -19 -13
-7 -16 -3 -15 -19 -11 -14 -11
-25 -18 0 -9 -16 -11 -12 -9
-19 -17 -3 -11 -19 -17 -17 -12
-8 -15 -4 -12 -21 -19 -18 -13
-10 -13 -2 -10 -20 -16 -17 -12
-8 -16 -6 -13 -23 -23 -24 -17
11 -11 -9 -17 -24 -22 -24 -16
4 -11 -4 -13 -18 -13 -17 -11
-2 -10 -2 -11 -16 -10 -15 -9
1 -1 2 -6 -13 -9 -14 -6
-4 -5 4 -6 -10 -4 -9 -4
-22 -11 4 -4 -12 -8 -12 -6
-13 -10 2 -5 -15 -14 -16 -9
-6 -11 -1 -7 -17 -14 -16 -11
-12 -12 0 -7 -19 -18 -19 -12
-10 -14 -2 -10 -23 -23 -24 -16
1 -16 -6 -15 -24 -24 -25 -18
0 -12 -3 -12 -19 -16 -19 -13
-4 -12 0 -9 -18 -14 -18 -12
-7 -16 0 -10 -20 -17 -20 -13
0 -12 3 -5 -14 -8 -11 -6
-13 -15 5 -3 -13 -8 -10 -6
-13 -18 0 -7 -19 -17 -16 -11
-7 -18 -4 -11 -21 -18 -17 -14
-8 -16 -4 -10 -22 -20 -20 -14
-7 -11 -3 -10 -23 -23 -23 -16
5 -8 -7 -14 -23 -22 -23 -16
7 -3 -3 -11 -19 -16 -20 -12
1 -3 -2 -10 -17 -14 -18 -12
1 -9 -4 -13 -21 -18 -20 -15
7 -8 -2 -11 -18 -13 -15 -11
-8 -8 2 -4 -16 -10 -13 -10
-9 -13 -2 -9 -20 -17 -17 -13
-4 -8 -1 -9 -17 -12 -13 -10
-13 -9 2 -6 -15 -12 -12 -9
-18 -12 -2 -11 -22 -24 -23 -16
4 -7 -7 -15 -24 -25 -23 -18
3 -4 -3 -14 -21 -19 -20 -15
-7 -8 -2 -13 -21 -20 -23 -15
-7 -12 -2 -13 -22 -20 -23 -17
-2 -11 -1 -12 -21 -15 -17 -12
-17 -13 2 -9 -18 -14 -16 -11
-14 -16 -2 -12 -22 -19 -18 -13
-14 -19 -6 -15 -25 -21 -20 -16
-19 -23 -5 -15 -25 -23 -20 -16
-21 -26 -10 -20 -31 -33 -30 -25
-1 -21 -13 -22 -31 -32 -30 -24
-2 -13 -7 -18 -26 -24 -24 -20
-12 -13 -3 -16 -24 -23 -24 -18
-15 -17 -3 -15 -26 -23 -25 -19
-12 -17 -1 -13 -22 -19 -20 -15
-16 -9 5 -8 -19 -18 -18 -12
-6 -10 2 -9 -22 -21 -21 -12
-6 -17 -2 -12 -23 -22 -21 -15
-11 -19 -3 -13 -24 -24 -23 -17
-2 -12 -5 -15 -26 -27 -25 -18
12 -7 -8 -19 -27 -27 -24 -19
6 -9 -5 -18 -24 -22 -22 -15
0 -13 -5 -18 -25 -24 -23 -17
0 -11 -3 -16 -26 -24 -23 -17
0 -9 0 -12 -21 -17 -17 -11
-19 -16 3 -10 -21 -18 -17 -11
-13 -16 -1 -12 -25 -23 -21 -14
-7 -16 -3 -14 -25 -22 -18 -15
-18 -20 -3 -13 -25 -23 -19 -15
-12 -19 -5 -17 -28 -28 -23 -18
4 -18 -10 -23 -30 -28 -23 -19
1 -19 -9 -22 -28 -25 -22 -17
-4 -20 -7 -21 -28 -25 -24 -19
-5 -14 -5 -20 -28 -25 -22 -18
-3 -8 -1 -16 -22 -18 -15 -12
-19 -15 1 -14 -23 -20 -15 -13
-20 -27 -6 -17 -30 -29 -24 -19
-13 -24 -6 -17 -29 -28 -23 -18
-9 -17 -4 -16 -28 -28 -22 -18
-11 -20 -3 -16 -31 -31 -25 -19
-3 -18 -9 -22 -31 -29 -25 -19
-9 -18 -8 -22 -27 -24 -22 -16
-13 -20 -5 -20 -26 -24 -22 -15
-10 -19 -4 -19 -28 -24 -22 -16
-6 -14 -1 -15 -25 -19 -17 -12
-15 -11 4 -9 -22 -18 -15 -10
-15 -13 0 -13 -27 -25 -20 -13
-11 -15 -5 -17 -31 -29 -23 -16
-12 -18 -5 -18 -31 -30 -24 -18
-12 -19 -6 -20 -35 -36 -30 -22
7 -14 -9 -24 -34 -34 -28 -21
3 -16 -8 -22 -29 -26 -24 -17
-12 -19 -5 -20 -28 -26 -23 -17
-12 -21 -5 -21 -29 -27 -22 -17
-11 -21 -4 -19 -24 -21 -16 -13
-28 -28 -1 -16 -25 -22 -17 -13
-24 -26 -6 -20 -32 -29 -23 -18
-12 -15 -5 -18 -32 -29 -22 -17
-8 -15 -4 -16 -31 -30 -23 -18
-6 -19 -6 -21 -36 -35 -30 -22
4 -15 -9 -24 -34 -32 -26 -21
1 -17 -7 -23 -31 -26 -22 -18
-3 -20 -5 -23 -32 -27 -24 -19
-1 -12 -3 -19 -30 -25 -22 -17
0 -10 0 -16 -23 -16 -12 -10
-13 -17 0 -16 -25 -20 -15 -12
-10 -21 -3 -17 -29 -26 -19 -16
-5 -16 -4 -16 -30 -26 -19 -16
-5 -13 -4 -18 -30 -28 -21 -17
-9 -17 -5 -21 -33 -34 -26 -21
2 -16 -9 -24 -33 -32 -25 -20
-8 -16 -5 -21 -30 -29 -24 -18
-12 -18 -3 -20 -29 -27 -24 -18
-15 -21 -4 -20 -31 -30 -24 -20
-9 -17 -3 -18 -27 -22 -17 -15
-16 -14 0 -14 -25 -21 -16 -13
-14 -19 -2 -16 -29 -28 -20 -17
-1 -12 -4 -18 -30 -28 -20 -18
1 -9 -4 -17 -28 -28 -21 -17
-6 -16 -7 -18 -34 -36 -28 -22
4 -16 -6 -20 -32 -31 -25 -21
-5 -17 -5 -19 -30 -29 -24 -20
-9 -14 -1 -14 -26 -25 -21 -17
-7 -11 1 -14 -26 -25 -21 -16
-1 -4 3 -11 -20 -17 -14 -11
-12 -3 8 -8 -17 -16 -11 -7
-9 -3 4 -10 -21 -21 -13 -10
-4 -2 2 -11 -21 -21 -13 -10
-5 -4 2 -13 -20 -22 -12 -10
-8 -6 -1 -16 -25 -27 -19 -14
9 0 -4 -19 -25 -27 -19 -15
5 -2 -4 -19 -23 -24 -18 -15
-7 -4 -4 -19 -22 -24 -18 -15
-9 -5 -5 -17 -20 -23 -17 -12
-9 -9 -6 -16 -19 -19 -11 -8
-13 -8 -3 -12 -18 -16 -9 -5
-6 -5 -3 -11 -18 -18 -9 -5
-3 -5 -5 -11 -18 -18 -10 -5
2 0 -3 -13 -19 -19 -9 -5
2 -2 -5 -16 -21 -23 -13 -9
11 -1 -6 -17 -19 -22 -12 -9
6 1 -3 -15 -18 -17 -9 -7
-1 -1 -3 -17 -20 -20 -12 -9
-3 -5 -4 -18 -22 -22 -13 -10
-1 -5 -2 -16 -20 -17 -8 -7
-21 -14 -1 -15 -21 -19 -11 -8
-16 -22 -6 -19 -27 -27 -18 -14
-4 -19 -6 -18 -26 -23 -14 -12
-15 -16 -2 -13 -23 -20 -12 -8
-12 -17 -3 -14 -26 -25 -16 -9
13 -11 -10 -22 -31 -29 -18 -12
10 -8 -8 -22 -29 -26 -14 -10
6 -8 -6 -19 -28 -24 -13 -9
4 -9 -5 -18 -28 -25 -13 -8
4 -12 -3 -16 -25 -20 -8 -4
-14 -17 -2 -15 -26 -22 -10 -5
-15 -21 -6 -19 -33 -31 -18 -11
-9 -20 -7 -20 -32 -31 -18 -13
-15 -21 -5 -19 -31 -31 -18 -14
-15 -22 -5 -22 -34 -35 -24 -18
0 -24 -9 -26 -36 -35 -23 -19
-9 -26 -6 -25 -34 -32 -21 -18
-8 -18 -2 -21 -29 -28 -18 -17
-5 -14 1 -18 -28 -25 -16 -14
-6 -21 -1 -21 -28 -24 -15 -12
-17 -29 -1 -20 -31 -27 -16 -14
-21 -32 -3 -21 -34 -32 -20 -16
-22 -30 -5 -21 -35 -34 -21 -17
-21 -31 -7 -23 -37 -35 -22 -19
-17 -31 -8 -26 -40 -42 -26 -22
3 -22 -7 -26 -36 -35 -21 -18
-2 -20 -5 -25 -32 -31 -18 -16
-5 -20 -3 -23 -32 -30 -19 -16
-3 -22 -3 -22 -31 -29 -17 -16
2 -16 0 -20 -27 -22 -11 -10
-15 -17 4 -17 -24 -22 -9 -8
-16 -20 -1 -21 -29 -30 -16 -13
-14 -20 -2 -22 -31 -33 -17 -15
-13 -21 -3 -23 -33 -33 -20 -17
-18 -26 -4 -24 -35 -37 -25 -21
-14 -26 -5 -23 -35 -37 -25 -23
-14 -23 2 -17 -30 -32 -23 -21
-13 -21 13 -6 -27 -31 -25 -22
-7 -22 23 8 -22 -29 -25 -23
-5 -25 30 20 -14 -23 -21 -22
-23 -31 36 34 -6 -20 -20 -23
-22 -31 42 45 2 -21 -22 -25
-15 -16 53 66 22 -12 -16 -19
-12 -2 75 101 49 6 -5 -11
-8 4 90 124 68 16 -1 -7
3 12 92 130 91 34 13 2
7 26 80 123 112 60 34 19
15 46 50 91 123 83 56 39
31 71 21 71 151 120 86 65
50 87 2 71 197 173 129 100
46 110 -13 72 240 224 170 134
64 135 -33 71 283 267 202 161
88 161 -63 67 326 320 241 193
99 185 -97 57 367 370 282 228
110 211 -142 30 395 405 315 258
128 242 -187 -10 404 425 341 286
124 260 -220 -55 385 426 355 306
118 237 -229 -91 335 393 336 294
112 194 -235 -123 257 335 298 269
106 163 -242 -167 172 273 267 250
81 133 -247 -221 62 190 223 221
72 106 -258 -292 -81 77 163 182
69 89 -255 -314 -163 9 127 157
56 63 -236 -288 -171 -17 102 135
48 48 -210 -257 -161 -36 76 110
55 40 -184 -226 -144 -38 59 90
43 26 -158 -195 -129 -36 48 77
33 12 -136 -168 -116 -34 39 66
24 4 -121 -147 -102 -33 29 53
17 -2 -105 -127 -89 -27 26 47
5 0 -86 -105 -76 -26 21 41
11 0 -74 -92 -70 -30 11 31
13 -2 -62 -81 -65 -33 4 19
13 -4 -49 -68 -58 -30 2 12
14 -8 -41 -57 -54 -35 -6 4
30 -4 -32 -46 -43 -27 -5 2
13 -5 -20 -32 -30 -17 1 7
-6 -8 -8 -21 -21 -12 3 7
-2 -7 -4 -16 -18 -12 1 6
0 -7 0 -13 -15 -8 4 7
-17 -8 7 -4 -12 -8 4 7
-9 -10 6 -6 -16 -14 -1 4
-5 -12 7 -4 -16 -14 -3 1
-1 -10 9 -2 -17 -14 -4 0
-1 -12 8 -3 -18 -20 -9 -4
8 -12 5 -5 -17 -19 -9 -6
4 -12 9 -1 -12 -13 -7 -5
-6 -18 12 2 -10 -11 -6 -4
-10 -20 12 5 -9 -13 -8 -6
-7 -15 15 9 -4 -6 0 -1
-23 -16 19 11 -4 -8 -2 -1
-15 -13 17 7 -9 -17 -8 -5
-7 -12 16 7 -9 -16 -8 -6
-5 -11 16 9 -12 -17 -10 -8
0 -11 15 8 -13 -21 -14 -11
5 -16 13 6 -13 -21 -14 -14
-1 -17 16 9 -9 -15 -11 -12
0 -15 17 12 -5 -10 -9 -10
-2 -16 19 12 -2 -9 -8 -9
-2 -15 21 15 0 -2 -2 -6
-15 -14 26 18 1 -2 -2 -4
-6 -10 23 16 -5 -12 -8 -8
1 -14 20 15 -5 -12 -8 -9
-3 -15 20 16 -8 -13 -9 -10
-8 -17 18 15 -12 -21 -17 -16
4 -14 16 14 -10 -18 -15 -15
-1 -9 20 19 -4 -10 -10 -10
-7 -8 24 22 1 -6 -7 -8
-10 -13 24 21 3 -5 -6 -8
-3 -9 27 24 6 2 0 -2
-8 -7 29 27 5 1 1 -1
-8 -10 27 24 1 -6 -4 -5
-6 -12 25 23 0 -8 -5 -7
-3 -12 25 25 0 -8 -6 -8
-8 -18 24 24 -2 -14 -12 -11
0 -18 20 23 -2 -14 -13 -14
-6 -20 23 26 4 -7 -9 -11
-11 -18 26 29 8 -4 -7 -9
-2 -12 28 32 12 0 -3 -6
0 -8 32 36 15 8 5 0
-13 -10 34 39 15 7 4 1
-4 -12 33 36 13 2 3 0
4 -9 31 35 13 1 3 -2
6 -6 31 38 13 0 2 -2
1 -10 28 37 12 -5 -4 -5
-1 -14 27 38 13 -4 -4 -7
-3 -10 33 43 20 4 1 -2
-10 -11 35 45 23 8 3 -2
-6 -7 38 48 27 12 5 1
6 2 43 53 32 22 15 9
-5 3 44 57 32 20 15 10
7 3 41 54 28 14 11 6
11 -1 39 54 28 15 12 6
6 -4 38 55 26 14 10 5
6 -10 34 53 21 5 2 -1
7 -10 34 52 23 8 3 -2
2 1 41 60 32 17 10 5
4 2 43 63 34 19 11 6
-5 -5 43 64 34 18 10 5
-3 -1 46 70 40 26 16 11
-10 -1 49 75 41 27 17 13
1 5 47 73 40 22 14 10
13 9 47 75 42 27 17 12
9 8 48 79 43 29 19 13
8 11 49 82 43 26 16 11
19 10 46 80 45 26 16 10
18 12 48 85 47 31 18 10
13 12 53 90 51 34 19 11
12 11 54 93 54 36 22 12
10 12 57 97 60 43 29 18
-4 10 60 101 61 44 29 21
-2 11 58 100 59 39 26 18
8 14 57 99 59 41 27 20
8 12 57 102 59 42 28 21
11 14 55 103 60 38 24 17
28 21 54 104 62 43 27 17
22 23 59 111 69 53 32 22
14 21 62 114 73 56 34 23
8 19 62 114 74 55 34 22
10 25 65 115 78 61 40 27
-1 24 67 120 79 62 40 30
2 16 63 118 74 57 36 27
10 17 60 116 73 55 35 25
12 20 61 117 72 56 35 26
7 15 59 115 69 50 32 23
21 20 55 113 68 51 31 21
24 26 57 116 75 59 37 25
22 29 60 119 78 62 40 28
18 27 60 116 77 61 39 27
12 31 64 121 80 68 46 34
7 36 68 125 81 67 47 36
11 36 64 119 75 60 41 34
15 35 65 119 76 61 43 35
12 32 63 117 73 57 38 32
13 30 57 112 67 48 31 26
28 30 52 106 66 48 30 24
20 29 54 107 68 53 33 27
16 26 54 105 68 55 35 26
16 26 51 101 66 53 35 25
17 32 54 102 69 59 43 31
-1 30 56 103 68 58 42 33
3 31 52 95 61 50 36 29
7 28 48 89 58 46 34 27
6 25 44 83 51 42 29 23
9 26 40 79 46 34 23 19
17 26 36 73 45 34 24 18
8 23 35 71 47 37 25 20
9 24 36 67 49 40 28 21
11 25 34 63 47 38 27 20
15 28 34 60 46 41 31 24
1 22 34 58 43 40 31 26
3 19 28 50 37 31 26 22
7 20 24 45 33 27 23 20
3 15 22 40 28 23 21 17
0 11 15 33 19 11 10 10
15 12 10 26 18 10 9 8
8 15 13 28 21 16 13 11
11 20 17 27 22 18 16 12
10 18 13 21 19 15 13 10
8 16 14 21 20 20 19 15
-7 13 16 20 18 18 19 16
0 15 14 15 13 11 16 14
7 16 10 10 10 7 12 11
5 10 7 7 5 3 9 8
-1 4 3 2 -1 -8 1 1
8 7 0 -2 -3 -8 -1 -2
6 9 2 -1 -1 -3 1 0
0 8 5 0 -1 -3 0 -1
-2 6 6 -1 -1 -4 -1 -2
0 2 4 -3 -1 0 4 1
-9 1 7 -2 -3 -2 3 1
3 4 3 -7 -9 -11 -3 -2
3 4 -2 -13 -14 -14 -4 -4
-2 1 -1 -11 -16 -14 -4 -4
-6 -7 -3 -13 -20 -21 -11 -8
8 -4 -9 -19 -21 -22 -13 -11
8 3 -3 -12 -13 -14 -7 -6
4 4 0 -11 -13 -12 -7 -6
-2 0 -2 -14 -15 -16 -11 -10
-3 -1 -1 -14 -12 -10 -4 -5
-18 -4 2 -10 -14 -12 -5 -4
-14 -5 1 -12 -17 -16 -8 -5
-11 -6 -1 -16 -16 -15 -5 -3
-9 -4 -1 -14 -18 -16 -6 -5
-3 -5 -5 -18 -23 -23 -13 -10
14 -4 -9 -21 -22 -22 -13 -11
10 1 -6 -18 -19 -17 -11 -9
-2 -4 -5 -19 -19 -18 -10 -10
-8 -10 -7 -22 -21 -19 -14 -13
-2 -4 -5 -20 -17 -13 -8 -8
-16 -6 -1 -17 -16 -13 -6 -4
-6 -5 -4 -17 -21 -18 -10 -8
6 -1 -6 -19 -20 -16 -9 -6
2 -2 -7 -20 -22 -19 -11 -8
-3 -3 -8 -21 -25 -25 -15 -11
9 -5 -11 -24 -24 -22 -14 -14
7 -7 -10 -23 -22 -19 -11 -11
1 -7 -7 -20 -20 -17 -9 -10
-8 -13 -7 -21 -19 -18 -10 -10
-10 -10 -5 -20 -17 -13 -6 -7
-21 -9 -1 -16 -17 -13 -4 -5
-17 -12 -5 -19 -22 -20 -10 -8
-7 -6 -6 -18 -23 -22 -11 -9
2 1 -4 -14 -22 -21 -10 -9
1 -2 -3 -15 -22 -25 -13 -9
12 2 -7 -19 -20 -22 -12 -11
10 1 -7 -18 -18 -18 -10 -10
2 -3 -4 -16 -17 -17 -10 -10
-8 -11 -4 -16 -17 -17 -10 -11
-11 -17 -4 -18 -16 -13 -8 -9
-24 -17 -1 -14 -17 -14 -8 -8
-18 -13 -2 -17 -21 -19 -11 -9
-9 -9 -5 -19 -24 -20 -13 -10
-6 -5 -2 -15 -23 -21 -13 -10
-8 -10 -5 -17 -26 -27 -20 -15
6 -8 -8 -20 -25 -25 -17 -15
2 -4 -3 -16 -18 -16 -12 -12
-6 -11 -2 -17 -17 -17 -13 -12
-4 -10 -1 -14 -16 -16 -12 -10
1 -3 2 -11 -10 -7 -4 -4
-8 -2 7 -6 -10 -6 -1 -2
-2 -1 4 -10 -14 -13 -7 -5
5 2 3 -10 -14 -13 -6 -4
0 -3 3 -10 -17 -16 -9 -7
2 -6 1 -12 -22 -24 -15 -12
11 -7 -4 -16 -21 -23 -16 -14
7 -6 0 -11 -16 -16 -10 -10
3 -5 4 -10 -14 -14 -8 -9
1 -8 4 -9 -11 -14 -9 -10
7 -5 5 -8 -8 -7 -2 -5
-9 -8 8 -6 -8 -7 -1 -3
-7 -9 3 -11 -14 -15 -8 -8
0 -9 -2 -15 -18 -17 -10 -11
-4 -9 -1 -14 -19 -19 -12 -11
-3 -12 -3 -15 -23 -26 -19 -17
11 -8 -6 -18 -21 -24 -19 -17
1 -9 0 -12 -16 -16 -14 -13
-8 -9 4 -8 -12 -15 -12 -10
-13 -11 4 -7 -12 -15 -13 -11
-13 -13 4 -9 -10 -10 -9 -8
-16 -10 9 -3 -7 -7 -5 -4
-4 -8 6 -7 -12 -14 -11 -8
-1 -8 5 -6 -11 -10 -8 -7
-18 -13 7 -4 -12 -12 -9 -7
-15 -15 2 -9 -20 -25 -21 -16
7 -10 -5 -16 -23 -27 -23 -19
1 -10 -3 -14 -20 -22 -20 -18
-7 -11 0 -11 -18 -21 -21 -18
-7 -11 2 -9 -15 -19 -18 -16
-11 -12 5 -7 -11 -12 -11 -11
-22 -12 9 -5 -10 -10 -8 -9
-8 -6 5 -8 -14 -15 -12 -11
-3 -6 2 -11 -17 -17 -13 -12
-8 -10 1 -12 -16 -17 -14 -12
-4 -11 0 -13 -19 -23 -18 -16
13 1 0 -13 -16 -19 -16 -15
12 5 4 -8 -10 -12 -11 -11
-2 -2 4 -9 -11 -13 -12 -11
-8 -4 3 -9 -12 -16 -14 -13
-5 -4 5 -9 -10 -11 -9 -9
-16 -3 8 -6 -10 -10 -9 -7
-7 -6 4 -11 -16 -18 -14 -11
-3 -12 -2 -17 -20 -22 -16 -14
-4 -8 0 -14 -19 -21 -15 -13
1 -10 -2 -16 -21 -25 -19 -17
13 -14 -6 -21 -21 -25 -19 -18
11 -8 -3 -18 -18 -19 -16 -16
6 -6 -2 -17 -16 -19 -16 -15
1 -4 2 -13 -15 -18 -15 -14
2 -4 5 -10 -10 -11 -9 -8
-14 -6 6 -9 -11 -12 -9 -8
-14 -13 1 -14 -19 -22 -18 -14
-8 -16 -3 -16 -23 -23 -19 -16
-6 -17 -3 -19 -24 -25 -21 -17
2 -13 -6 -20 -27 -30 -24 -21
15 -10 -9 -23 -26 -28 -23 -20
12 -8 -5 -22 -22 -23 -19 -18
7 -8 -4 -21 -22 -22 -20 -18
-6 -13 -3 -18 -19 -22 -19 -16
-11 -14 3 -14 -14 -13 -11 -9
-21 -16 5 -13 -15 -13 -11 -8
-20 -19 -1 -18 -22 -23 -20 -13
-13 -17 -2 -20 -23 -25 -20 -14
-13 -15 -2 -18 -23 -24 -19 -13
-10 -12 -3 -18 -26 -30 -23 -17
5 -7 -5 -21 -23 -26 -20 -16
-1 -7 -2 -18 -19 -21 -15 -13
-6 -6 -1 -18 -18 -20 -15 -13
-6 -10 -2 -20 -19 -21 -16 -14
-6 -14 0 -18 -17 -14 -10 -10
-20 -16 2 -15 -16 -13 -10 -8
-19 -16 -1 -18 -21 -20 -14 -11
-17 -16 -4 -21 -24 -25 -18 -14
-17 -18 -6 -23 -26 -25 -19 -15
-22 -29 -13 -28 -32 -35 -28 -21
-3 -25 -13 -29 -30 -32 -25 -20
-2 -15 -9 -26 -25 -24 -19 -17
-13 -14 -3 -21 -21 -20 -15 -13
1 1 2 -16 -15 -16 -11 -8
10 3 2 -15 -13 -10 -4 -5
-5 -6 2 -16 -16 -13 -7 -6
-8 -13 -3 -20 -22 -20 -13 -10
-4 -10 -3 -21 -21 -19 -14 -8
-9 -6 1 -16 -20 -18 -13 -8
-10 -10 -4 -20 -27 -30 -22 -15
0 -12 -10 -26 -29 -32 -24 -18
-8 -11 -6 -23 -23 -25 -20 -14
-6 -3 -1 -18 -19 -21 -16 -10
0 -3 -1 -16 -18 -20 -15 -10
4 -4 -1 -18 -17 -13 -10 -6
-15 -12 2 -16 -15 -14 -9 -4
-16 -16 0 -19 -20 -20 -14 -7
-7 -11 -3 -23 -22 -23 -16 -9
-11 -11 -5 -24 -26 -27 -19 -13
-11 -19 -8 -26 -30 -33 -25 -18
3 -15 -10 -28 -29 -32 -25 -19
0 -14 -9 -26 -26 -29 -25 -18
-2 -11 -5 -23 -22 -24 -21 -15
-8 -14 -5 -24 -23 -25 -22 -16
-8 -14 -2 -23 -18 -18 -14 -11
-12 -13 -1 -19 -17 -17 -13 -9
-15 -18 -4 -22 -22 -24 -19 -13
-5 -15 -6 -26 -24 -24 -17 -13
-1 -10 -6 -25 -24 -24 -16 -13
-6 -10 -5 -24 -25 -28 -19 -13
3 -8 -6 -25 -22 -25 -16 -14
-4 -10 -4 -23 -19 -21 -16 -13
-6 -10 -2 -20 -17 -19 -15 -10
-6 -10 -2 -21 -18 -19 -17 -11
-11 -12 -1 -22 -16 -15 -12 -10
-20 -10 4 -17 -13 -11 -8 -4
-12 -9 0 -19 -17 -19 -12 -7
-4 -11 -4 -23 -19 -21 -15 -10
-2 -11 -4 -23 -20 -21 -14 -11
-4 -13 -7 -24 -24 -28 -21 -14
8 -10 -9 -27 -24 -27 -20 -16
2 -6 -5 -23 -18 -20 -17 -12
-10 -13 -4 -22 -19 -21 -18 -14
-13 -12 -3 -20 -17 -20 -18 -12
-11 -12 -2 -21 -15 -16 -14 -11
-24 -13 0 -20 -16 -18 -15 -10
-18 -13 -2 -22 -20 -24 -18 -13
-11 -11 -3 -23 -20 -25 -19 -13
-10 -9 -3 -23 -20 -24 -19 -12
-6 -7 -5 -23 -21 -27 -21 -14
