I II V1 V2 V3 V4 V5 V6
11 -9 11 51 21 0 -12 -14
11 -9 11 52 21 0 -12 -14
11 -9 11 53 21 1 -11 -14
11 -8 11 54 22 2 -10 -13
11 -8 11 55 22 3 -9 -13
11 -8 11 56 22 3 -8 -13
11 -7 12 58 23 4 -7 -12
11 -7 12 59 24 4 -7 -11
11 -6 12 60 25 4 -7 -11
11 -6 12 61 26 4 -7 -10
11 -6 12 62 26 4 -7 -10
12 -5 12 63 27 3 -8 -9
12 -4 12 63 27 3 -8 -9
12 -4 13 62 27 4 -8 -8
12 -3 13 62 27 4 -8 -8
12 -3 13 62 27 4 -8 -8
12 -2 14 61 26 5 -7 -7
12 -2 14 61 26 5 -7 -7
12 -2 14 61 26 5 -7 -7
12 -2 14 61 26 5 -7 -7
12 -2 14 61 26 5 -7 -7
12 1 15 60 25 4 -7 -7
11 2 14 58 24 3 -7 -7
11 4 14 57 23 2 -7 -7
10 5 13 55 22 1 -7 -7
10 6 13 54 21 0 -7 -7
9 7 12 53 20 -2 -8 -8
9 6 12 52 20 -2 -8 -8
9 5 12 51 19 0 -8 -8
9 4 12 50 19 0 -8 -8
9 4 12 49 19 0 -8 -8
9 3 12 47 18 1 -7 -7
9 4 12 46 18 2 -6 -6
9 4 12 45 17 3 -5 -5
9 5 12 44 17 4 -4 -4
9 5 12 43 17 4 -4 -4
10 6 12 40 16 5 -3 -3
10 5 12 38 16 5 -3 -4
10 5 12 36 16 4 -3 -5
10 4 12 34 16 4 -3 -6
10 4 12 33 16 4 -3 -6
9 3 12 31 15 3 -4 -7
9 3 11 29 14 3 -4 -7
9 3 11 27 13 3 -4 -6
9 3 10 25 12 3 -4 -6
9 3 10 23 11 3 -4 -6
7 2 9 22 10 3 -3 -5
6 1 9 21 9 3 -3 -5
4 0 9 20 8 3 -3 -5
3 -2 9 19 7 3 -3 -5
2 -3 9 18 7 3 -3 -5
1 -4 10 16 5 3 -4 -6
1 -4 10 14 3 2 -5 -6
1 -4 9 12 2 1 -6 -7
1 -4 9 10 0 0 -7 -7
1 -4 9 8 -2 -2 -7 -7
1 -5 8 7 -3 -3 -8 -8
1 -6 8 7 -3 -4 -9 -9
0 -6 8 6 -4 -5 -10 -10
0 -7 8 6 -4 -6 -11 -11
0 -7 8 6 -4 -6 -12 -12
-2 -8 7 5 -5 -7 -13 -13
-3 -8 7 4 -5 -7 -13 -13
-3 -8 7 3 -5 -7 -13 -13
-4 -8 7 2 -5 -7 -13 -13
-4 -8 7 2 -5 -7 -13 -13
-5 -9 6 1 -6 -7 -14 -12
-5 -9 6 1 -6 -8 -14 -13
-5 -9 6 2 -6 -8 -14 -13
-5 -9 6 2 -6 -9 -14 -14
-5 -9 6 2 -6 -9 -14 -14
-5 -10 6 3 -7 -10 -13 -15
-5 -10 5 2 -7 -10 -13 -15
-5 -9 5 1 -7 -9 -12 -15
-5 -9 4 0 -7 -9 -12 -15
-5 -9 4 0 -7 -9 -12 -15
-6 -8 3 -2 -7 -8 -11 -15
-6 -8 4 0 -7 -7 -11 -15
-6 -8 5 1 -6 -7 -10 -14
-6 -8 6 2 -6 -6 -10 -14
-6 -8 7 2 -6 -6 -10 -14
-6 -9 8 3 -5 -5 -9 -13
-6 -9 8 3 -5 -5 -9 -13
-5 -9 8 3 -5 -5 -9 -13
-5 -9 8 3 -5 -5 -9 -13
-5 -9 8 3 -5 -5 -9 -13
-4 -10 8 2 -4 -4 -9 -12
-4 -10 8 3 -4 -4 -9 -12
-4 -9 8 3 -4 -4 -9 -12
-4 -9 8 4 -4 -4 -9 -12
-4 -9 8 4 -4 -4 -9 -12
-5 -8 8 5 -3 -4 -9 -12
-5 -8 8 4 -3 -4 -9 -12
-4 -8 8 4 -3 -3 -8 -12
-4 -8 8 3 -3 -3 -8 -12
-4 -8 8 3 -3 -3 -8 -12
-3 -8 7 2 -3 -2 -7 -11
-3 -8 7 2 -3 -2 -7 -11
-3 -8 8 3 -2 -3 -7 -11
-3 -8 8 3 -2 -3 -7 -11
-3 -8 8 3 -2 -3 -7 -11
-3 -7 9 4 0 -3 -6 -10
-3 -5 10 4 1 -2 -5 -9
-4 -3 10 4 1 0 -4 -8
-4 0 11 4 2 1 -3 -7
-4 1 11 4 2 2 -2 -7
-5 2 12 4 3 3 0 -6
-5 2 13 5 3 2 -2 -6
-5 3 13 5 3 2 -2 -6
-5 3 14 6 3 1 -3 -6
-5 3 14 6 3 1 -3 -6
-4 4 15 7 3 0 -4 -7
-4 5 15 7 3 1 -3 -6
-4 5 16 7 4 1 -2 -5
-4 6 16 7 4 2 0 -4
-4 6 16 7 4 2 1 -3
-3 8 17 6 5 3 2 -2
-2 10 16 6 5 3 2 -2
0 11 15 5 6 4 2 -2
1 13 14 5 6 4 2 -2
1 14 13 5 6 4 2 -2
2 15 10 2 6 5 3 0
2 15 7 0 3 4 2 0
3 15 4 -4 1 3 2 0
3 15 1 -7 -2 2 1 0
3 15 -3 -9 -4 1 1 0
4 15 -4 -10 -5 0 0 1
4 14 -4 -10 -5 -2 0 1
4 14 -3 -10 -6 -2 0 1
4 13 -3 -10 -6 -3 0 1
4 13 -3 -10 -6 -3 0 1
4 12 -2 -10 -7 -4 -2 1
5 13 -3 -11 -7 -4 0 2
7 13 -3 -12 -8 -4 0 4
8 14 -4 -13 -8 -4 1 5
9 14 -4 -13 -8 -4 1 6
10 13 -4 -13 -9 -3 2 7
9 9 -3 -11 -8 -3 2 6
9 6 -2 -9 -7 -3 2 5
8 3 0 -8 -6 -3 2 4
8 0 1 -6 -6 -3 2 3
6 -2 2 -5 -5 -4 1 1
5 -3 2 -6 -6 -5 0 0
3 -4 2 -7 -7 -6 -2 -3
2 -5 2 -8 -8 -7 -3 -4
1 -6 2 -8 -8 -7 -4 -5
0 -8 2 -10 -10 -9 -6 -7
-2 -9 1 -11 -12 -12 -9 -9
-3 -11 0 -12 -13 -14 -11 -10
-4 -12 -2 -13 -15 -16 -13 -12
-5 -13 -3 -14 -16 -18 -15 -13
-6 -14 -4 -15 -17 -19 -16 -14
-6 -14 -4 -15 -17 -19 -16 -14
-6 -14 -5 -16 -17 -19 -15 -14
-6 -14 -5 -16 -17 -19 -15 -14
-6 -14 -5 -16 -17 -19 -15 -14
-7 -16 -6 -17 -18 -18 -14 -14
-7 -17 -5 -16 -17 -18 -15 -14
-7 -18 -4 -16 -17 -19 -15 -14
-7 -19 -3 -15 -16 -19 -16 -14
-7 -20 -3 -15 -16 -19 -16 -14
-8 -21 -2 -14 -15 -20 -17 -15
-8 -22 -2 -14 -15 -20 -17 -15
-8 -23 -2 -14 -16 -20 -16 -14
-8 -24 -2 -14 -16 -20 -16 -14
-8 -24 -2 -14 -16 -20 -16 -14
-8 -25 -3 -14 -17 -20 -15 -13
-8 -25 -3 -14 -17 -20 -15 -14
-8 -25 -2 -14 -16 -20 -16 -14
-8 -25 -2 -14 -16 -20 -16 -15
-8 -25 -2 -14 -16 -20 -16 -15
-9 -24 0 -13 -15 -21 -17 -16
-9 -24 0 -13 -15 -21 -17 -16
-9 -24 0 -13 -15 -21 -17 -16
-9 -24 0 -13 -15 -21 -17 -16
-9 -24 0 -13 -15 -21 -17 -16
-8 -26 0 -12 -15 -20 -17 -17
-6 -27 1 -9 -13 -19 -17 -17
-4 -28 3 -5 -11 -18 -18 -18
-3 -29 4 -2 -9 -17 -18 -18
0 -30 5 2 -7 -17 -18 -18
4 -27 11 18 9 -5 -9 -14
9 -22 18 35 26 10 5 -7
13 -17 25 54 43 24 17 1
17 -12 32 71 60 38 30 8
22 -7 39 90 77 52 44 15
34 12 38 94 100 80 71 36
48 32 33 95 122 111 102 59
62 52 28 97 146 143 134 81
75 72 24 99 169 174 164 105
89 93 19 100 192 204 195 128
95 112 1 67 181 212 210 147
100 130 -21 27 162 215 222 165
104 148 -43 -14 144 219 234 185
108 167 -64 -54 126 222 245 203
113 185 -86 -94 107 225 258 223
92 172 -95 -129 63 185 224 203
64 152 -101 -162 14 135 181 176
37 132 -107 -196 -34 86 138 148
10 112 -113 -230 -83 36 95 121
-17 93 -120 -264 -133 -14 52 94
-30 74 -119 -265 -151 -43 22 69
-39 56 -115 -259 -163 -67 -6 45
-50 38 -112 -252 -177 -92 -33 21
-59 20 -108 -245 -189 -116 -61 -3
-69 2 -105 -239 -201 -142 -89 -27
-67 -5 -98 -218 -190 -138 -89 -31
-62 -8 -89 -195 -172 -129 -82 -32
-56 -12 -80 -172 -154 -118 -76 -33
-51 -16 -72 -148 -136 -109 -71 -34
-45 -20 -64 -124 -117 -99 -65 -35
-39 -21 -55 -107 -103 -90 -58 -34
-34 -21 -45 -90 -89 -80 -52 -31
-28 -21 -34 -73 -74 -72 -45 -29
-23 -21 -25 -56 -60 -63 -38 -26
-17 -21 -15 -38 -46 -54 -32 -23
-16 -22 -12 -31 -39 -51 -29 -22
-15 -23 -9 -26 -35 -48 -27 -21
-14 -24 -7 -21 -31 -46 -25 -21
-13 -25 -4 -16 -27 -44 -24 -20
-13 -25 -2 -11 -23 -41 -22 -20
-12 -26 0 -9 -21 -40 -21 -19
-12 -26 1 -8 -20 -38 -20 -19
-11 -26 2 -6 -19 -37 -20 -19
-11 -26 3 -4 -17 -36 -19 -19
-11 -26 3 -3 -16 -35 -19 -19
-10 -25 4 -2 -15 -34 -18 -18
-9 -25 4 1 -14 -33 -17 -18
-8 -25 4 2 -13 -32 -17 -18
-7 -25 4 3 -12 -31 -16 -18
-7 -25 4 4 -11 -31 -16 -18
-6 -24 4 5 -10 -30 -15 -17
-6 -23 5 5 -10 -30 -15 -17
-6 -23 5 5 -10 -30 -15 -17
-6 -22 6 5 -10 -30 -15 -17
-6 -22 6 5 -10 -30 -15 -17
-5 -21 7 6 -10 -30 -15 -17
-5 -21 7 6 -9 -29 -14 -17
-4 -21 7 7 -8 -29 -13 -16
-4 -21 7 7 -7 -28 -12 -16
-4 -21 7 7 -7 -28 -11 -16
-3 -21 8 8 -6 -27 -10 -15
-3 -21 8 9 -5 -26 -10 -15
-2 -21 9 10 -4 -25 -9 -14
-2 -21 9 11 -3 -24 -9 -14
-2 -21 9 12 -3 -23 -9 -14
0 -21 10 13 -2 -22 -8 -13
0 -21 10 14 0 -21 -8 -13
-2 -20 10 15 0 -21 -8 -13
-2 -20 10 16 1 -20 -8 -13
-2 -20 10 16 1 -20 -8 -13
-3 -19 9 17 2 -19 -8 -13
-3 -19 9 18 3 -19 -8 -13
-2 -19 10 18 4 -18 -8 -13
-2 -19 10 19 5 -18 -8 -13
-2 -19 10 19 6 -18 -8 -13
0 -18 11 20 7 -17 -7 -13
0 -18 11 21 8 -16 -6 -13
0 -18 11 22 9 -15 -6 -13
0 -18 11 23 10 -14 -5 -13
0 -18 11 24 10 -14 -5 -13
1 -17 11 26 11 -13 -4 -12
1 -17 11 28 12 -13 -4 -12
1 -18 11 30 13 -13 -3 -12
1 -18 11 31 14 -13 -3 -12
1 -18 11 33 15 -13 -3 -12
2 -19 12 35 17 -12 -2 -12
3 -19 12 36 18 -11 -2 -12
3 -19 13 38 19 -11 -2 -11
4 -19 13 40 21 -10 -2 -11
4 -19 13 42 22 -10 -2 -11
5 -19 14 44 23 -9 0 -10
6 -18 14 45 24 -9 0 -10
6 -18 14 47 25 -9 0 -9
7 -17 14 49 26 -9 0 -9
7 -17 14 50 27 -9 0 -9
8 -16 15 52 28 -8 1 -8
8 -15 15 53 30 -6 2 -8
8 -15 15 55 31 -5 3 -7
8 -14 15 57 32 -4 5 -7
8 -14 15 58 33 -3 6 -7
9 -13 16 59 34 -2 7 -6
10 -12 16 61 34 -2 7 -6
10 -12 17 62 34 -3 6 -6
11 -11 17 63 34 -3 6 -6
11 -11 17 64 34 -3 6 -6
12 -10 18 65 35 -4 5 -5
11 -10 18 65 35 -3 6 -4
11 -10 18 65 34 -3 6 -4
10 -10 18 65 34 -2 7 -3
10 -10 18 65 34 -2 7 -3
9 -11 18 65 33 0 8 -2
9 -10 18 65 33 0 7 -2
9 -9 18 64 32 -2 7 -2
9 -8 18 64 32 -2 6 -2
9 -8 18 64 32 -2 6 -2
8 -7 18 63 31 -3 5 -2
8 -7 18 61 30 -4 5 -2
7 -6 18 60 29 -5 5 -2
7 -6 18 59 28 -6 5 -2
7 -6 18 58 27 -6 5 -2
6 -5 18 57 26 -7 5 -2
6 -5 18 55 25 -7 5 -2
5 -5 18 54 25 -7 5 -2
5 -5 18 53 24 -7 5 -2
5 -5 18 52 24 -7 5 -2
4 -6 17 50 23 -7 5 -2
4 -6 17 49 23 -6 6 0
3 -6 17 47 22 -6 7 1
3 -6 17 45 22 -5 8 2
3 -6 17 44 22 -5 8 2
2 -6 18 42 21 -4 9 3
2 -6 18 40 21 -4 9 3
2 -6 18 39 21 -4 9 3
2 -6 18 37 21 -4 9 3
2 -6 18 36 21 -4 9 3
1 -6 17 34 21 -4 9 2
1 -6 17 32 20 -4 9 3
1 -6 16 29 20 -4 9 3
1 -6 16 27 19 -4 9 4
1 -6 16 25 19 -4 9 4
1 -6 15 23 17 -3 9 5
0 -7 15 22 16 -4 8 4
0 -7 14 20 15 -5 7 3
-2 -8 14 19 13 -5 6 2
-2 -8 14 17 12 -6 5 1
-3 -9 13 16 11 -7 4 0
-4 -11 13 14 9 -7 3 0
-5 -12 13 13 8 -8 3 -2
-5 -13 13 12 7 -8 2 -2
-6 -14 13 11 6 -8 2 -2
-7 -15 13 10 5 -9 1 -3
-7 -16 13 9 4 -10 0 -4
-7 -16 12 8 3 -10 0 -5
-7 -17 12 7 3 -11 -2 -5
-7 -17 12 6 2 -11 -2 -6
-8 -18 11 5 1 -12 -3 -7
-8 -18 11 5 1 -12 -3 -7
-9 -18 10 4 1 -12 -4 -7
-9 -18 10 4 1 -12 -4 -7
-9 -18 10 4 1 -12 -4 -7
-10 -17 9 3 0 -13 -5 -8
-10 -17 10 3 0 -13 -4 -7
-10 -16 10 3 1 -12 -4 -7
-10 -16 11 3 1 -12 -3 -6
-10 -16 11 3 1 -12 -3 -6
-9 -15 12 4 2 -11 -2 -5
-9 -15 12 4 2 -11 -2 -5
-9 -15 12 4 3 -11 -2 -5
-9 -15 12 4 3 -11 -2 -5
-9 -15 12 4 3 -11 -2 -5
-8 -15 12 4 4 -12 -2 -6
-8 -15 12 4 4 -12 -2 -6
-8 -14 12 4 4 -11 -2 -6
-8 -14 12 4 4 -11 -2 -6
-8 -14 12 4 4 -11 -2 -6
-9 -13 12 4 4 -10 -2 -7
-9 -13 12 4 4 -10 -2 -7
-9 -13 12 4 4 -10 -2 -7
-9 -13 12 4 4 -10 -2 -7
-9 -13 12 4 4 -10 -2 -7
-8 -12 11 4 4 -9 -2 -7
-8 -12 11 4 4 -9 -2 -7
-8 -12 11 4 4 -9 -2 -7
-8 -12 11 4 4 -9 -2 -7
-8 -12 11 4 4 -9 -2 -7
-8 -13 12 5 3 -9 0 -8
-8 -13 12 5 3 -8 0 -8
-9 -13 12 5 3 -7 1 -7
-9 -13 12 5 3 -7 1 -7
-9 -13 12 5 3 -6 1 -7
-10 -14 11 5 3 -5 2 -6
-9 -13 11 5 3 -5 2 -6
-9 -13 11 5 3 -5 2 -5
-8 -12 11 5 3 -5 2 -5
-8 -12 11 5 3 -5 2 -5
-7 -10 12 5 3 -4 3 -4
-7 -8 13 5 4 -4 3 -4
-7 -7 13 5 4 -4 4 -3
-7 -5 14 5 5 -4 4 -3
-7 -3 14 5 5 -4 4 -3
-7 -2 15 5 6 -3 5 -2
-7 0 15 5 6 -2 5 -2
-7 0 16 5 6 0 6 0
-7 1 16 5 6 0 6 0
-7 1 16 5 6 1 6 0
-6 2 17 6 7 2 7 1
-6 3 17 6 7 2 7 2
-6 4 18 6 8 3 7 2
-6 4 18 6 8 3 7 3
-6 5 18 6 8 3 7 3
-6 7 19 6 9 4 8 4
-6 9 18 5 9 4 8 4
-5 11 18 5 9 4 8 5
-5 13 17 4 9 4 8 5
-5 15 17 4 9 4 8 5
-4 16 14 2 8 5 8 6
-3 17 11 -2 6 4 7 6
-2 17 8 -4 5 4 6 6
0 18 5 -6 3 3 5 6
1 18 2 -9 1 3 4 6
2 19 1 -10 0 2 3 5
2 18 0 -11 -2 0 2 4
1 17 0 -12 -3 -2 1 4
1 17 -2 -12 -3 -3 0 3
1 16 -2 -13 -4 -4 -2 3
0 15 -3 -14 -5 -5 -3 2
0 15 -4 -14 -6 -5 -3 2
0 15 -4 -15 -6 -5 -2 2
0 15 -5 -15 -7 -5 -2 2
0 15 -5 -15 -7 -5 -2 2
1 14 -6 -15 -8 -5 0 2
1 11 -5 -14 -7 -4 0 3
2 8 -4 -12 -6 -3 1 3
2 5 -3 -11 -6 -3 1 4
2 2 -2 -9 -5 -2 1 4
3 1 0 -8 -4 0 2 5
2 0 0 -8 -4 0 1 3
1 -2 0 -8 -5 -2 0 2
1 -3 0 -8 -6 -3 -2 0
0 -4 0 -8 -6 -3 -3 -2
-2 -6 0 -9 -8 -5 -5 -3
-3 -8 0 -11 -10 -7 -7 -5
-4 -10 -2 -12 -12 -9 -9 -6
-5 -13 -2 -14 -14 -12 -12 -8
-6 -15 -2 -15 -16 -14 -14 -9
-7 -16 -3 -16 -17 -15 -15 -10
-7 -16 -3 -16 -17 -15 -15 -10
-8 -17 -4 -16 -17 -15 -15 -11
-9 -17 -4 -16 -17 -15 -15 -11
-9 -17 -4 -16 -17 -15 -15 -11
-10 -18 -5 -16 -17 -16 -16 -12
-10 -18 -5 -16 -17 -16 -16 -12
-9 -19 -5 -16 -18 -17 -17 -12
-9 -19 -5 -16 -18 -17 -18 -12
-9 -19 -5 -16 -18 -17 -18 -12
-8 -20 -5 -16 -19 -18 -19 -13
-8 -20 -5 -16 -19 -18 -19 -13
-8 -20 -5 -16 -19 -18 -19 -14
-8 -20 -5 -16 -19 -18 -19 -14
-8 -20 -5 -16 -19 -18 -19 -14
-8 -21 -5 -16 -20 -18 -19 -15
-8 -21 -4 -16 -20 -18 -19 -15
-9 -22 -3 -16 -20 -18 -19 -15
-10 -23 -3 -16 -20 -18 -19 -15
-10 -23 -2 -16 -20 -18 -19 -15
-11 -24 0 -16 -20 -19 -19 -15
-11 -24 0 -16 -20 -19 -19 -15
-10 -24 0 -15 -20 -19 -19 -15
-9 -24 0 -15 -20 -19 -19 -15
-9 -24 0 -15 -20 -19 -19 -15
-8 -24 -2 -13 -20 -19 -20 -16
-8 -24 -2 -11 -19 -19 -20 -16
-7 -25 0 -9 -17 -19 -20 -16
-6 -26 0 -6 -16 -19 -20 -16
-6 -26 0 -4 -15 -19 -20 -16
-4 -25 5 7 -6 -12 -16 -14
0 -22 12 21 8 -2 -8 -10
3 -19 18 35 21 9 1 -6
6 -16 25 51 34 19 9 -2
9 -13 32 65 48 29 17 3
18 -2 35 75 68 53 37 17
31 15 34 82 95 84 67 36
44 31 33 90 120 114 96 57
56 48 32 98 146 146 126 77
69 64 31 105 172 177 154 97
79 85 17 89 181 198 179 119
88 109 -4 56 178 213 201 143
97 133 -25 24 175 228 224 165
105 156 -47 -8 172 242 246 189
113 181 -68 -40 169 258 268 213
104 181 -83 -77 134 237 255 210
82 165 -97 -117 81 193 218 190
60 151 -110 -157 29 150 182 170
38 136 -122 -197 -24 106 145 150
17 120 -136 -237 -76 63 108 130
-2 102 -139 -254 -112 23 70 104
-17 80 -134 -256 -137 -13 32 74
-33 60 -129 -259 -161 -50 -6 46
-49 39 -123 -261 -187 -87 -44 16
-65 18 -118 -264 -212 -123 -81 -14
-68 8 -112 -251 -212 -134 -96 -26
-63 3 -104 -227 -195 -126 -93 -29
-58 -3 -97 -202 -178 -118 -90 -31
-53 -7 -89 -179 -161 -110 -87 -34
-48 -12 -80 -155 -144 -102 -83 -36
-43 -14 -71 -133 -127 -93 -77 -37
-37 -15 -60 -112 -110 -80 -69 -34
-32 -16 -49 -92 -93 -69 -61 -31
-27 -17 -37 -71 -76 -58 -53 -28
-22 -18 -26 -51 -59 -47 -45 -26
-18 -19 -20 -39 -50 -39 -39 -24
-17 -19 -16 -34 -45 -36 -37 -23
-15 -19 -13 -28 -39 -33 -34 -21
-13 -19 -10 -22 -34 -29 -32 -20
-11 -19 -7 -17 -29 -26 -29 -19
-10 -19 -5 -13 -27 -24 -28 -18
-10 -19 -4 -11 -25 -23 -28 -18
-9 -19 -3 -8 -24 -22 -27 -18
-9 -19 -2 -6 -22 -21 -27 -18
-9 -19 0 -3 -21 -20 -27 -18
-8 -20 1 -2 -20 -19 -26 -19
-8 -20 1 0 -20 -19 -25 -19
-7 -20 2 1 -19 -18 -24 -19
-7 -20 2 1 -18 -17 -24 -19
-7 -20 2 2 -18 -17 -23 -19
-6 -19 3 3 -17 -16 -22 -18
-6 -19 3 5 -17 -16 -22 -18
-6 -19 4 6 -16 -17 -22 -18
-6 -19 4 8 -16 -17 -22 -18
-6 -19 4 9 -16 -17 -22 -18
-5 -19 5 10 -15 -18 -23 -17
-5 -19 5 10 -15 -17 -22 -17
-5 -19 5 10 -14 -16 -21 -17
-5 -19 5 10 -13 -15 -20 -17
-5 -19 5 10 -13 -14 -19 -17
-4 -18 5 11 -12 -13 -18 -17
-4 -18 5 12 -11 -13 -18 -17
-4 -18 5 14 -10 -13 -18 -17
-4 -18 5 15 -10 -13 -18 -17
-4 -18 5 16 -9 -13 -18 -17
-3 -17 5 17 -8 -12 -17 -16
-2 -17 5 17 -8 -12 -17 -16
0 -16 5 17 -8 -11 -17 -16
0 -15 5 17 -8 -10 -17 -16
1 -15 5 17 -8 -10 -17 -16
2 -14 6 17 -8 -9 -17 -15
2 -14 6 17 -8 -9 -17 -15
2 -13 6 18 -7 -9 -17 -15
2 -13 6 19 -7 -9 -17 -15
2 -13 6 19 -7 -9 -17 -15
2 -12 7 20 -6 -8 -17 -16
2 -12 7 21 -5 -7 -16 -16
3 -11 7 23 -3 -5 -15 -16
4 -11 7 24 -2 -4 -14 -16
4 -11 7 25 0 -3 -13 -16
5 -10 8 26 1 -2 -12 -16
5 -10 8 28 1 -2 -12 -16
5 -9 8 29 2 -2 -12 -15
5 -9 8 30 2 -2 -12 -15
5 -9 8 32 2 -2 -12 -15
5 -8 8 33 3 -2 -12 -14
5 -8 8 34 5 -2 -12 -14
6 -8 9 36 6 -2 -12 -13
6 -8 10 37 7 -2 -12 -13
6 -8 10 38 9 -2 -12 -13
7 -9 11 40 10 0 -11 -12
7 -9 11 43 12 0 -11 -12
7 -9 11 46 13 0 -11 -12
7 -9 11 48 14 0 -11 -12
7 -9 11 50 16 0 -11 -12
8 -8 12 52 17 0 -10 -12
8 -8 12 54 18 0 -9 -12
8 -7 13 55 19 1 -8 -11
8 -7 13 56 20 2 -8 -11
8 -7 13 58 21 2 -7 -11
9 -6 14 59 22 3 -6 -10
9 -6 14 61 22 3 -6 -10
9 -6 15 62 22 4 -6 -9
9 -6 15 63 22 5 -6 -9
9 -6 15 65 22 5 -6 -9
10 -5 16 66 23 6 -7 -8
10 -4 16 66 23 6 -6 -8
10 -3 16 66 23 6 -5 -7
10 -3 16 66 23 6 -5 -6
10 -2 16 66 23 6 -4 -6
10 0 17 66 24 7 -3 -5
10 0 17 66 24 7 -3 -5
10 0 17 66 23 6 -4 -5
10 0 17 66 23 5 -4 -5
10 0 17 66 23 5 -4 -5
10 1 17 66 22 4 -5 -6
10 1 17 64 22 4 -5 -6
9 1 17 63 21 4 -5 -5
8 1 17 62 20 4 -5 -5
8 1 17 60 20 4 -5 -5
7 0 17 59 19 3 -4 -4
7 0 17 58 18 3 -4 -3
6 0 17 57 17 2 -4 -2
6 0 17 56 16 2 -4 -2
6 0 17 55 15 2 -4 0
5 0 17 53 14 1 -3 1
5 0 17 51 14 1 -3 1
6 1 16 49 14 1 -3 2
6 1 15 47 14 1 -3 2
6 1 15 45 14 1 -3 2
7 2 14 44 13 2 -3 3
6 2 14 42 13 2 -3 3
5 2 13 39 12 2 -3 2
5 2 13 37 11 2 -3 2
4 2 13 35 11 2 -3 2
3 2 12 33 10 3 -3 1
3 2 12 31 10 3 -3 1
3 2 11 29 9 3 -3 1
3 2 11 27 8 3 -3 1
3 2 11 25 8 3 -3 1
2 2 10 23 7 4 -3 0
1 1 10 21 7 4 -3 0
0 0 9 19 6 3 -3 0
0 0 8 18 5 3 -3 0
-2 -2 8 16 5 3 -3 0
-3 -3 7 15 4 2 -3 -2
-3 -4 7 13 3 1 -3 -2
-3 -6 7 11 1 0 -4 -3
-3 -7 7 9 0 -2 -5 -3
-3 -8 7 7 -2 -3 -5 -3
-4 -9 6 6 -3 -4 -6 -4
-4 -9 6 6 -4 -4 -6 -4
-5 -9 6 5 -5 -5 -7 -5
-5 -9 6 4 -5 -5 -7 -5
-5 -9 6 4 -6 -5 -7 -5
-6 -10 6 3 -7 -6 -8 -6
-7 -11 6 2 -8 -6 -8 -6
-8 -12 6 1 -9 -7 -9 -7
-8 -12 6 0 -9 -7 -9 -7
-9 -13 6 -2 -10 -7 -9 -7
-10 -14 6 -3 -11 -8 -10 -8
-10 -14 6 -3 -11 -8 -10 -8
-10 -14 6 -3 -11 -9 -10 -8
-10 -14 6 -3 -11 -9 -10 -8
-10 -14 6 -3 -11 -9 -10 -8
-9 -13 5 -3 -10 -10 -11 -8
-9 -13 5 -3 -10 -10 -11 -8
-9 -13 5 -3 -10 -9 -11 -8
-9 -13 5 -3 -10 -8 -11 -8
-9 -13 5 -3 -10 -8 -11 -8
-8 -12 6 -2 -9 -7 -10 -8
-8 -12 6 -2 -9 -7 -10 -8
-8 -13 6 -2 -9 -7 -10 -8
-8 -14 6 -2 -9 -7 -11 -9
-8 -14 6 -2 -9 -7 -11 -9
-9 -15 7 0 -9 -8 -12 -10
-9 -15 7 0 -9 -8 -12 -10
-9 -15 7 0 -8 -8 -11 -9
-9 -15 7 0 -7 -7 -10 -8
-9 -15 7 0 -7 -7 -10 -8
-10 -15 7 0 -6 -6 -9 -7
-10 -15 7 0 -6 -6 -9 -7
-10 -15 7 1 -6 -6 -9 -7
-9 -14 8 2 -6 -6 -9 -7
-9 -14 8 2 -6 -6 -9 -7
-8 -13 9 3 -6 -6 -9 -7
-8 -13 9 3 -6 -6 -9 -7
-8 -13 9 3 -6 -6 -9 -7
-8 -13 9 2 -6 -5 -9 -7
-8 -13 9 2 -6 -5 -9 -7
-9 -14 8 1 -6 -4 -9 -7
-9 -14 8 1 -6 -4 -9 -7
-9 -14 8 1 -6 -4 -9 -7
-9 -14 8 2 -6 -4 -8 -7
-9 -14 8 2 -6 -4 -8 -7
-10 -14 8 3 -6 -4 -7 -7
-10 -13 8 3 -6 -4 -7 -7
-10 -12 8 3 -6 -4 -6 -7
-10 -11 8 2 -6 -4 -5 -7
-10 -10 8 2 -6 -4 -5 -7
-9 -9 8 1 -6 -4 -4 -7
-9 -8 10 1 -6 -4 -4 -6
-8 -7 11 2 -5 -3 -4 -6
-7 -5 12 3 -4 -2 -3 -5
-7 -4 14 3 -4 -2 -3 -4
-6 -3 15 4 -3 0 -2 -3
-6 -3 15 4 -3 0 0 -3
-6 -2 16 4 -2 1 1 -3
-6 0 17 4 0 2 2 -3
-6 0 17 4 0 2 3 -3
-7 1 18 5 1 3 4 -2
-7 1 18 5 1 3 4 -2
-7 2 18 5 1 3 4 0
-7 3 18 5 1 3 4 1
-7 3 18 5 1 3 4 1
-7 4 18 4 1 4 3 2
-6 6 16 2 1 4 3 2
-5 8 14 1 1 5 3 2
-3 10 12 0 1 6 4 3
-2 12 10 -3 1 6 4 3
0 14 8 -4 1 7 5 4
0 14 6 -6 -2 6 5 4
0 14 5 -7 -3 5 4 4
0 13 4 -9 -4 3 3 4
0 13 2 -11 -6 2 3 4
1 12 1 -12 -7 1 2 4
1 12 0 -13 -8 0 2 4
1 12 0 -14 -9 0 1 4
1 12 -2 -15 -10 -2 0 3
1 12 -3 -16 -11 -3 0 3
0 12 -4 -17 -12 -4 -2 2
0 12 -4 -16 -12 -4 -2 3
0 12 -4 -15 -12 -4 -2 3
1 11 -4 -14 -11 -4 -2 4
1 11 -4 -13 -11 -4 -2 5
2 10 -3 -12 -10 -3 0 6
2 8 -3 -12 -10 -3 0 5
2 7 -3 -12 -10 -3 0 4
2 5 -2 -11 -9 -3 0 2
2 3 -2 -11 -9 -3 0 1
2 1 0 -10 -8 -3 -2 0
0 -2 0 -10 -9 -6 -5 -2
-2 -5 0 -11 -9 -8 -7 -3
-4 -7 0 -12 -10 -10 -9 -5
-6 -10 0 -12 -11 -12 -11 -6
-7 -12 -2 -13 -12 -14 -13 -7
-7 -12 -2 -14 -14 -14 -13 -8
-7 -12 -2 -14 -15 -15 -14 -9
-7 -12 -3 -15 -16 -16 -15 -11
-7 -12 -3 -16 -18 -16 -15 -12
-7 -13 -4 -17 -19 -17 -16 -13
-7 -14 -4 -17 -19 -17 -16 -13
-7 -15 -4 -17 -19 -17 -16 -13
-7 -16 -4 -17 -19 -17 -17 -13
-7 -17 -4 -17 -19 -17 -17 -13
-7 -18 -3 -16 -18 -18 -18 -14
-7 -18 -3 -16 -18 -18 -18 -14
-7 -18 -3 -16 -18 -18 -18 -14
-7 -19 -3 -16 -18 -18 -18 -14
-7 -19 -3 -16 -18 -18 -18 -14
-8 -20 -3 -17 -17 -18 -17 -14
-8 -20 -3 -17 -17 -18 -17 -14
-8 -20 -3 -17 -17 -18 -17 -14
-8 -20 -2 -16 -17 -18 -18 -14
-8 -20 -2 -16 -17 -18 -18 -14
-8 -21 0 -15 -18 -18 -19 -15
-8 -21 0 -15 -18 -18 -19 -15
-8 -21 0 -15 -18 -18 -19 -15
-8 -21 0 -15 -17 -18 -19 -16
-8 -21 0 -15 -17 -18 -19 -16
-9 -21 -2 -15 -16 -17 -19 -17
-9 -21 -2 -15 -16 -17 -19 -17
-9 -21 -2 -15 -16 -17 -19 -17
-9 -21 -2 -15 -16 -18 -19 -17
-9 -21 -2 -15 -16 -18 -19 -17
-9 -22 1 -11 -14 -18 -19 -18
-7 -22 4 -4 -9 -15 -17 -18
-5 -22 8 4 -3 -12 -16 -18
-3 -23 11 12 3 -9 -14 -17
0 -23 15 19 8 -6 -12 -17
4 -22 18 30 20 4 -5 -12
11 -16 23 47 39 22 12 -2
18 -10 28 63 60 40 27 9
25 -3 32 79 80 59 44 19
31 4 37 96 101 77 59 29
42 17 37 103 120 101 81 45
56 42 28 96 141 131 113 70
69 66 19 89 161 161 144 95
84 91 10 80 181 191 176 120
97 115 1 73 201 222 206 145
106 134 -15 51 201 237 226 162
105 143 -37 7 171 229 225 170
104 152 -61 -38 139 220 225 177
103 160 -83 -82 108 212 224 184
102 170 -107 -127 77 203 223 191
90 168 -121 -164 39 177 203 185
61 146 -123 -192 -8 125 157 156
32 125 -126 -220 -56 73 111 127
4 102 -128 -247 -103 21 65 98
-25 80 -130 -275 -150 -31 19 69
-45 62 -131 -286 -180 -67 -16 45
-50 48 -126 -269 -181 -78 -31 28
-54 33 -121 -252 -183 -90 -47 12
-58 18 -117 -234 -184 -101 -63 -5
-63 4 -112 -217 -186 -112 -78 -22
-64 -6 -105 -196 -179 -115 -87 -32
-57 -7 -92 -173 -158 -104 -80 -32
-50 -7 -78 -149 -137 -92 -73 -32
-43 -8 -66 -124 -115 -80 -67 -31
-36 -9 -53 -101 -94 -68 -60 -31
-30 -10 -43 -81 -76 -59 -55 -30
-28 -12 -34 -68 -66 -52 -50 -28
-25 -13 -27 -55 -55 -46 -46 -27
-22 -15 -19 -43 -44 -38 -40 -25
-19 -17 -12 -29 -32 -32 -35 -23
-17 -18 -7 -21 -25 -27 -32 -22
-16 -18 -6 -18 -23 -26 -31 -22
-15 -18 -5 -16 -21 -25 -31 -22
-14 -19 -4 -14 -19 -23 -30 -22
-13 -19 -3 -12 -18 -22 -29 -22
-12 -20 -2 -10 -16 -21 -28 -21
-11 -20 0 -8 -14 -20 -27 -21
-11 -20 1 -7 -13 -19 -27 -21
-10 -20 3 -5 -11 -18 -26 -21
-9 -20 4 -3 -9 -17 -25 -21
-8 -20 5 -2 -8 -16 -24 -20
-8 -20 5 -2 -8 -15 -23 -20
-8 -20 5 -2 -8 -14 -22 -20
-8 -20 5 -2 -7 -13 -21 -19
-8 -20 5 -2 -7 -12 -20 -19
-8 -19 6 -2 -6 -11 -19 -18
-8 -19 6 -2 -5 -11 -19 -18
-8 -19 6 0 -5 -12 -19 -18
-7 -19 6 1 -4 -13 -19 -18
-7 -19 6 1 -3 -13 -19 -18
-6 -18 7 2 -2 -14 -20 -18
-6 -18 7 2 -2 -13 -20 -18
-6 -18 7 2 -2 -13 -20 -18
-6 -17 7 2 -2 -12 -19 -18
-6 -17 7 2 -2 -11 -19 -18
-5 -16 7 1 -2 -10 -18 -17
-5 -16 7 2 -2 -10 -18 -17
-5 -16 7 2 0 -10 -18 -17
-5 -16 8 3 1 -9 -18 -17
-5 -16 8 4 1 -9 -18 -17
-4 -17 9 5 2 -8 -18 -16
-4 -17 9 5 2 -7 -18 -16
-4 -17 9 5 2 -7 -18 -16
-4 -16 9 6 3 -6 -17 -16
-4 -16 9 6 3 -5 -17 -16
-3 -15 9 7 4 -4 -16 -15
-3 -15 9 8 5 -4 -16 -15
-3 -15 9 9 5 -3 -16 -15
-3 -15 10 11 6 -2 -16 -15
-3 -15 10 12 7 -2 -16 -15
-2 -16 11 13 8 0 -15 -15
-2 -16 11 13 8 0 -15 -15
-2 -15 11 13 8 0 -14 -14
0 -14 11 14 9 1 -13 -13
0 -14 11 14 9 1 -13 -13
1 -13 10 15 10 2 -12 -12
2 -13 10 16 11 2 -12 -12
3 -13 10 18 12 2 -12 -12
4 -13 10 19 14 2 -13 -12
5 -13 10 21 15 2 -13 -12
6 -13 11 22 16 3 -14 -13
6 -13 11 24 17 3 -13 -12
6 -12 11 26 18 4 -12 -12
5 -11 12 28 19 5 -10 -11
5 -11 12 29 20 5 -9 -10
4 -10 13 31 21 6 -8 -9
4 -10 14 33 23 6 -8 -9
4 -10 14 35 24 6 -8 -9
5 -10 15 37 26 7 -8 -9
5 -10 16 38 27 7 -8 -9
6 -10 17 40 29 8 -8 -8
6 -9 17 42 29 8 -8 -8
7 -9 17 43 29 8 -8 -7
7 -8 17 44 30 9 -7 -7
8 -7 17 46 30 9 -7 -6
9 -6 16 47 31 10 -6 -5
9 -6 16 48 31 10 -6 -5
9 -5 17 48 32 10 -6 -5
9 -5 17 49 32 10 -6 -5
9 -4 18 50 33 10 -6 -5
10 -3 19 51 34 9 -6 -4
10 -2 19 51 34 9 -6 -4
10 0 19 51 33 9 -6 -4
10 1 18 50 33 9 -6 -3
10 3 18 50 32 9 -6 -3
10 4 17 49 31 10 -5 -2
10 4 17 49 31 10 -5 -2
10 4 17 49 30 10 -5 -2
9 4 18 48 30 9 -6 -2
9 4 18 48 29 9 -6 -2
8 3 19 47 28 8 -7 -3
7 3 19 46 27 8 -7 -3
6 3 19 45 26 8 -7 -3
5 4 19 44 25 8 -7 -3
4 4 19 43 24 8 -7 -3
3 5 18 42 23 7 -6 -2
3 5 18 40 23 7 -6 -2
3 5 18 39 23 7 -6 -2
3 5 19 38 22 7 -6 -2
3 5 19 37 22 7 -6 -2
4 4 20 36 21 6 -5 0
4 4 19 34 21 6 -5 0
4 4 19 32 21 7 -4 0
4 4 18 30 21 7 -4 0
4 4 17 28 21 8 -3 0
4 5 16 26 20 9 -2 1
4 5 16 25 19 9 -2 1
4 5 16 23 19 9 -2 1
4 4 16 22 18 9 -2 1
4 4 16 20 17 9 -2 1
5 3 16 19 16 9 0 1
5 3 15 16 15 9 0 1
5 3 14 14 13 9 0 1
5 3 13 12 12 9 0 1
5 3 11 9 10 9 0 1
4 4 10 7 9 9 0 0
3 3 10 6 9 8 -2 -2
3 2 10 5 8 8 -3 -2
2 1 10 4 8 7 -4 -3
1 0 10 2 7 6 -6 -4
0 -2 10 1 6 5 -7 -5
0 -2 10 0 5 5 -7 -5
0 -3 9 -2 4 4 -7 -5
-2 -3 9 -3 3 4 -7 -5
-2 -4 8 -5 1 3 -7 -5
-3 -5 7 -6 0 2 -8 -6
-3 -6 7 -6 -2 1 -8 -7
-4 -6 7 -6 -2 0 -8 -8
-4 -7 7 -7 -3 -2 -9 -9
-5 -8 7 -7 -4 -3 -9 -10
-6 -9 8 -8 -5 -4 -10 -11
-6 -9 8 -8 -5 -4 -10 -11
-6 -9 7 -9 -5 -4 -10 -11
-6 -9 7 -9 -6 -4 -11 -11
-6 -9 6 -10 -6 -4 -11 -11
-6 -8 5 -11 -7 -5 -12 -12
-6 -8 5 -11 -7 -5 -12 -12
-6 -7 5 -11 -7 -5 -12 -12
-6 -7 5 -10 -7 -5 -12 -12
-6 -6 5 -10 -7 -5 -12 -12
-6 -5 5 -9 -7 -6 -11 -13
-6 -5 5 -9 -7 -6 -11 -13
-6 -5 5 -9 -7 -6 -11 -13
-6 -5 5 -10 -7 -6 -11 -13
-6 -5 5 -10 -7 -6 -11 -13
-6 -5 5 -11 -7 -6 -11 -12
-6 -5 5 -11 -7 -6 -11 -12
-6 -5 5 -10 -7 -6 -11 -12
-6 -5 5 -10 -6 -6 -11 -12
-6 -5 5 -9 -6 -6 -11 -12
-7 -5 5 -8 -5 -7 -11 -12
-7 -5 5 -8 -5 -7 -11 -12
-7 -5 5 -8 -5 -7 -11 -12
-7 -5 5 -8 -5 -6 -11 -12
-7 -5 5 -8 -5 -6 -11 -12
-7 -5 6 -8 -4 -5 -10 -11
-7 -6 6 -8 -4 -5 -10 -11
-7 -7 6 -7 -4 -6 -10 -12
-7 -8 6 -7 -4 -6 -10 -12
-7 -9 6 -6 -4 -7 -10 -13
-8 -10 7 -5 -5 -8 -11 -14
-8 -10 7 -5 -5 -8 -11 -13
-7 -10 7 -5 -5 -7 -11 -13
-7 -9 8 -5 -5 -7 -11 -12
-6 -9 8 -5 -5 -6 -11 -11
-5 -8 9 -5 -4 -5 -10 -10
-5 -8 9 -5 -4 -5 -10 -10
-5 -8 9 -5 -4 -5 -10 -10
-5 -7 9 -5 -5 -5 -10 -10
-5 -7 9 -5 -5 -5 -10 -10
-5 -6 8 -4 -6 -6 -10 -11
-5 -6 8 -4 -6 -6 -10 -11
-5 -6 8 -4 -6 -6 -10 -11
-5 -5 8 -4 -6 -5 -10 -11
-5 -5 8 -4 -6 -5 -10 -11
-5 -4 8 -4 -5 -4 -9 -10
-5 -3 8 -3 -4 -4 -9 -10
-6 -2 9 -3 -3 -4 -8 -10
-6 0 9 -2 -2 -3 -8 -9
-7 2 10 0 0 -3 -7 -9
-8 3 11 1 1 -2 -6 -8
-8 3 11 1 1 -2 -6 -8
-7 4 12 1 1 0 -5 -7
-6 5 13 1 1 0 -5 -6
-5 6 14 1 1 1 -4 -5
-4 7 15 2 1 2 -3 -4
-4 7 15 2 1 2 -3 -4
-4 7 15 2 1 2 -3 -4
-3 7 16 2 1 2 -3 -4
-3 7 16 2 1 2 -3 -4
-2 8 17 3 2 2 -2 -3
-2 9 16 3 2 2 -2 -2
0 11 14 2 2 3 0 0
1 13 13 1 3 3 1 1
2 14 12 0 3 4 2 2
3 16 10 -2 4 5 3 3
3 16 7 -4 2 4 2 3
3 16 4 -6 0 3 1 3
4 15 1 -8 -3 2 0 2
4 15 -2 -10 -5 1 -3 2
5 14 -5 -12 -7 0 -4 1
5 13 -5 -12 -7 0 -4 1
5 12 -5 -13 -8 -2 -4 1
5 11 -5 -13 -9 -3 -4 1
5 10 -5 -14 -10 -4 -4 1
4 9 -4 -15 -11 -5 -5 0
4 9 -4 -15 -11 -5 -5 0
5 9 -4 -14 -10 -4 -5 0
5 9 -3 -13 -10 -4 -4 1
6 9 -3 -12 -9 -3 -4 1
7 10 -2 -11 -8 -2 -3 2
7 8 -2 -11 -8 -2 -3 2
6 6 -2 -10 -8 -3 -3 1
6 4 0 -10 -8 -3 -3 1
5 2 0 -9 -8 -4 -3 0
4 0 1 -8 -7 -5 -4 -2
3 -2 1 -8 -7 -5 -5 -3
2 -4 1 -8 -8 -6 -7 -5
1 -5 1 -8 -9 -7 -8 -7
-2 -6 1 -8 -10 -8 -9 -8
-3 -8 2 -9 -11 -9 -11 -10
-4 -10 2 -10 -12 -10 -12 -10
-5 -12 1 -11 -13 -11 -13 -11
-6 -14 1 -12 -14 -12 -14 -11
-7 -16 0 -14 -16 -14 -15 -12
-8 -18 -2 -15 -17 -15 -16 -13
-8 -18 -2 -15 -17 -15 -16 -13
-8 -18 -2 -15 -17 -15 -16 -13
-8 -19 -2 -15 -17 -16 -16 -14
-8 -19 -2 -15 -17 -16 -16 -14
-8 -20 0 -14 -18 -17 -16 -15
-8 -20 0 -14 -18 -17 -16 -15
-8 -20 0 -14 -18 -17 -16 -15
-8 -20 0 -14 -18 -17 -16 -15
-8 -20 0 -14 -18 -17 -16 -15
-7 -20 -2 -15 -18 -17 -17 -14
-7 -20 -2 -15 -18 -17 -17 -14
-8 -21 -2 -14 -18 -17 -17 -14
-8 -22 -2 -14 -18 -17 -17 -15
-9 -23 -2 -13 -18 -17 -17 -15
-10 -24 -2 -12 -17 -17 -17 -16
-10 -24 -2 -12 -17 -17 -17 -16
-10 -24 -2 -12 -17 -17 -17 -16
-10 -24 -2 -12 -17 -17 -17 -15
-10 -24 -2 -12 -17 -17 -17 -15
-9 -24 -2 -11 -16 -16 -16 -14
-9 -24 -2 -11 -16 -16 -16 -14
-9 -24 -2 -11 -16 -16 -16 -14
-9 -25 -2 -11 -16 -16 -17 -14
-9 -25 -2 -11 -16 -16 -17 -14
-9 -26 0 -9 -17 -17 -18 -15
-7 -26 1 -4 -14 -15 -17 -15
-6 -26 3 2 -11 -14 -16 -15
-4 -26 5 8 -8 -12 -15 -15
-2 -26 6 13 -5 -10 -14 -15
2 -25 9 21 2 -6 -11 -15
8 -20 15 37 18 9 2 -8
14 -14 22 55 34 24 15 0
20 -9 29 71 52 38 27 7
26 -3 35 89 68 53 39 15
33 6 40 103 86 70 56 25
49 28 33 100 106 99 85 48
63 50 27 97 127 128 113 71
78 72 20 94 146 156 142 95
94 94 13 91 167 185 171 118
106 114 4 80 181 209 195 139
109 127 -18 38 157 205 199 150
112 140 -40 -4 135 202 204 161
115 152 -62 -46 112 198 209 173
118 164 -83 -88 90 195 213 184
116 173 -102 -128 63 185 211 189
87 154 -107 -159 16 139 171 165
57 136 -111 -191 -30 94 131 141
26 116 -116 -223 -76 49 91 116
-4 98 -121 -255 -122 3 51 92
-30 79 -126 -280 -161 -37 14 68
-38 62 -122 -268 -168 -53 -6 50
-46 46 -120 -256 -174 -68 -24 31
-54 29 -117 -244 -180 -85 -44 13
-62 12 -115 -232 -186 -100 -63 -6
-68 -3 -111 -219 -188 -112 -79 -21
-62 -5 -99 -194 -170 -102 -73 -21
-55 -7 -87 -170 -151 -93 -67 -22
-48 -9 -75 -146 -132 -82 -62 -23
-40 -12 -63 -121 -113 -73 -56 -24
-34 -14 -52 -99 -96 -63 -51 -25
-30 -14 -43 -83 -83 -55 -45 -23
-26 -14 -33 -67 -71 -48 -39 -21
-22 -15 -25 -52 -59 -39 -34 -19
-18 -15 -16 -35 -47 -31 -29 -16
-14 -16 -8 -22 -35 -24 -24 -14
-13 -16 -7 -19 -33 -23 -23 -14
-12 -16 -6 -16 -30 -21 -22 -14
-11 -16 -5 -13 -28 -20 -21 -14
-10 -16 -4 -10 -26 -19 -20 -14
-9 -17 -3 -7 -23 -17 -19 -14
-9 -17 -2 -5 -22 -17 -19 -14
-9 -18 0 -2 -20 -16 -19 -14
-9 -19 1 1 -18 -16 -19 -14
-9 -20 2 3 -17 -15 -19 -14
-8 -21 4 6 -15 -14 -19 -15
-8 -21 4 6 -15 -14 -19 -15
-7 -21 4 7 -15 -14 -18 -15
-7 -21 4 7 -15 -13 -18 -14
-6 -21 4 8 -15 -13 -17 -14
-5 -21 4 9 -14 -12 -16 -13
-5 -21 4 10 -13 -12 -16 -13
-5 -21 5 11 -12 -12 -16 -13
-5 -21 5 12 -11 -11 -16 -13
-5 -21 6 13 -10 -11 -16 -13
-5 -20 7 15 -8 -10 -16 -12
-5 -20 7 15 -8 -10 -16 -11
-5 -19 7 15 -8 -10 -15 -10
-4 -19 7 15 -8 -10 -14 -9
-4 -18 7 15 -8 -10 -13 -8
-3 -17 7 16 -7 -9 -12 -6
-3 -17 7 17 -7 -9 -12 -6
-2 -17 7 18 -6 -9 -12 -6
-2 -17 8 19 -6 -8 -12 -7
0 -17 8 20 -5 -8 -12 -7
1 -17 9 21 -4 -7 -12 -8
1 -17 9 21 -4 -7 -12 -8
1 -16 9 21 -4 -7 -11 -8
1 -16 9 21 -4 -6 -11 -7
1 -15 9 21 -4 -6 -10 -7
0 -14 9 21 -3 -5 -9 -6
0 -14 9 22 -2 -5 -9 -6
0 -14 9 24 0 -5 -9 -6
0 -15 9 26 1 -5 -9 -6
0 -15 9 27 2 -5 -9 -6
0 -16 8 29 3 -5 -10 -6
1 -16 8 29 3 -5 -10 -6
2 -15 8 29 3 -4 -10 -6
3 -15 8 29 3 -3 -9 -5
4 -14 8 29 3 -2 -9 -5
5 -13 8 29 4 0 -8 -4
5 -13 8 31 5 0 -8 -4
6 -12 8 32 6 0 -8 -4
6 -12 9 34 8 0 -8 -4
7 -11 9 36 9 0 -8 -4
8 -10 10 38 11 0 -8 -3
8 -10 10 39 11 0 -8 -3
8 -10 10 40 11 0 -7 -3
8 -9 10 42 12 0 -7 -2
8 -9 10 43 12 0 -6 -2
8 -8 10 45 13 1 -5 0
8 -8 10 47 14 1 -5 0
8 -8 11 49 15 2 -5 0
8 -8 11 51 17 2 -5 0
8 -8 12 53 18 3 -5 0
8 -8 13 55 20 4 -4 1
8 -7 13 55 20 4 -4 1
8 -5 13 56 20 5 -3 2
8 -4 13 57 21 5 -3 3
8 -2 13 58 21 6 -2 4
9 1 14 59 22 7 0 5
9 1 14 60 22 7 0 5
9 1 14 62 23 7 0 5
9 1 14 63 23 7 0 5
9 1 14 65 24 7 0 5
10 0 14 67 25 7 0 5
10 0 14 67 25 7 0 5
10 1 14 66 25 7 0 5
10 1 14 65 24 7 0 5
10 2 14 64 24 7 0 5
11 3 14 63 23 6 0 6
11 3 14 63 23 6 0 6
11 3 15 63 23 6 0 6
10 3 16 63 23 5 0 6
10 3 17 63 23 5 0 6
9 3 18 64 22 4 0 6
9 3 18 63 21 4 0 6
9 3 17 62 20 3 0 6
9 4 17 61 19 3 0 6
9 4 16 60 18 2 0 6
8 5 15 58 16 1 -2 6
8 5 15 58 16 1 -2 6
8 5 15 58 16 1 -2 7
8 6 16 57 16 1 -2 7
8 6 16 57 16 1 -2 8
7 7 17 56 17 1 -2 9
7 7 17 55 17 2 0 9
7 7 17 53 17 3 1 10
6 7 16 52 17 4 2 11
6 7 16 50 17 5 3 12
5 8 15 48 16 6 5 13
5 8 15 47 16 6 5 13
5 8 15 45 16 6 5 12
5 8 14 44 15 6 5 12
5 8 14 42 15 6 5 11
4 7 13 39 14 5 4 10
4 7 13 37 14 5 4 10
4 6 13 35 13 5 4 10
4 5 12 33 13 5 4 9
4 4 12 31 12 5 4 9
3 3 11 28 11 5 5 8
3 2 11 27 10 5 4 8
2 1 11 25 9 4 3 7
2 0 11 24 8 4 2 6
1 -2 11 22 7 3 1 5
0 -3 10 20 5 2 0 4
0 -3 10 19 5 2 0 4
0 -3 9 17 4 2 0 4
0 -3 9 16 3 1 0 4
0 -3 8 14 2 1 0 4
-2 -3 7 12 1 0 -2 3
-2 -3 7 12 0 0 -2 3
-3 -4 7 12 -2 -2 -3 2
-3 -5 6 11 -3 -3 -4 1
-4 -6 6 11 -4 -4 -5 0
-5 -7 5 10 -5 -5 -6 -2
-5 -7 5 10 -5 -5 -6 -2
-5 -7 5 9 -5 -5 -6 0
-5 -7 5 9 -5 -5 -6 1
-5 -7 5 8 -5 -5 -6 2
-4 -6 6 7 -6 -4 -5 3
-5 -6 6 7 -6 -4 -5 3
-6 -6 6 7 -6 -5 -6 3
-7 -6 7 8 -5 -5 -6 2
-8 -6 7 8 -5 -6 -7 2
-9 -6 8 9 -4 -7 -8 1
-9 -6 8 9 -4 -7 -8 1
-9 -6 7 8 -4 -7 -8 1
-8 -6 6 8 -4 -6 -7 1
-8 -6 5 7 -4 -6 -7 1
-7 -7 4 6 -4 -5 -6 0
-7 -7 4 6 -4 -5 -6 0
-7 -7 5 7 -4 -4 -6 0
-7 -7 6 7 -4 -4 -6 -2
-7 -7 7 8 -4 -3 -6 -2
-6 -8 8 9 -3 -2 -7 -3
-6 -8 8 9 -3 -2 -7 -3
-6 -8 8 9 -3 -2 -7 -3
-6 -8 8 9 -3 -2 -6 -2
-6 -8 8 9 -3 -2 -6 -2
-7 -8 8 8 -3 -2 -5 0
-7 -8 8 8 -3 -2 -5 0
-7 -8 8 8 -3 -2 -5 0
-7 -8 8 9 -3 -2 -6 0
-7 -8 8 9 -3 -2 -6 0
-6 -8 9 10 -2 -3 -7 -2
-6 -8 9 9 -2 -3 -7 -2
-6 -8 9 8 -2 -3 -7 -2
-6 -8 8 7 -2 -3 -6 -2
-6 -8 8 6 -2 -3 -6 -2
-7 -9 7 5 -3 -2 -5 0
-7 -9 7 5 -3 -2 -5 0
-7 -9 7 5 -3 -2 -5 0
-7 -9 7 6 -3 -2 -5 0
-7 -9 7 6 -3 -2 -5 0
-7 -8 7 7 -2 -3 -4 1
-7 -8 7 7 -2 -3 -4 1
-7 -8 7 7 -2 -3 -4 1
-7 -8 7 6 -2 -3 -4 1
-7 -8 7 6 -2 -3 -4 1
-7 -7 7 5 -2 -2 -4 1
-7 -6 8 5 -2 -2 -4 1
-7 -4 10 6 -2 -2 -4 1
-7 -3 11 7 0 0 -4 1
-7 0 13 8 0 0 -4 1
-7 2 15 9 1 1 -4 1
-7 3 15 9 1 1 -4 1
-7 4 15 9 1 1 -3 1
-7 5 15 8 1 2 -3 2
-7 6 15 8 1 2 -2 2
-6 7 16 7 2 3 0 3
-6 7 16 7 2 3 0 3
-5 7 17 7 3 4 1 3
-5 7 17 8 3 4 1 3
-4 7 18 8 4 5 2 3
-3 8 19 9 5 6 3 3
-3 9 18 8 5 6 3 3
-2 10 16 7 5 6 3 4
-2 12 14 5 5 6 4 4
0 13 12 4 5 6 4 5
1 15 10 2 4 7 5 6
1 15 8 1 3 6 5 6
2 15 6 -2 2 5 4 5
2 15 4 -3 1 4 3 4
3 15 2 -5 0 3 2 3
4 15 -2 -7 -3 2 1 2
4 15 -2 -8 -4 2 1 2
4 15 -3 -9 -5 1 1 2
4 15 -3 -10 -6 0 0 2
4 15 -4 -11 -7 -2 0 2
4 14 -5 -13 -9 -3 -2 2
5 13 -5 -12 -9 -3 -2 2
6 12 -4 -11 -8 -2 0 2
7 11 -4 -10 -8 -2 1 2
8 11 -3 -10 -7 0 2 2
9 10 -3 -9 -7 0 2 2
9 8 -2 -8 -6 1 3 3
8 6 0 -8 -6 1 3 3
6 4 0 -7 -6 1 2 3
5 2 1 -7 -6 1 2 3
4 1 1 -7 -6 1 2 3
2 -3 2 -6 -5 -2 -2 0
0 -5 2 -7 -6 -3 -4 -4
-3 -8 1 -8 -7 -5 -7 -6
-5 -10 1 -9 -8 -6 -9 -9
-6 -12 1 -9 -9 -7 -11 -11
-7 -13 0 -11 -11 -9 -12 -12
-7 -14 0 -12 -12 -10 -12 -12
-8 -14 0 -13 -13 -11 -12 -12
-8 -15 0 -14 -14 -12 -12 -12
-8 -15 0 -15 -15 -13 -12 -12
-9 -16 -2 -16 -16 -14 -13 -13
-9 -17 -2 -16 -16 -14 -14 -13
-9 -17 -2 -15 -15 -15 -14 -14
-9 -18 -2 -15 -15 -15 -15 -14
-9 -18 -2 -15 -15 -15 -15 -14
-8 -19 -2 -14 -14 -16 -16 -15
-8 -19 -2 -15 -15 -16 -16 -16
-8 -19 -2 -16 -16 -16 -17 -16
-8 -19 -2 -17 -17 -16 -17 -17
-8 -19 -2 -17 -17 -16 -17 -17
-9 -19 -3 -18 -18 -17 -18 -18
-10 -19 -3 -18 -18 -17 -18 -19
-10 -19 -3 -18 -18 -17 -18 -19
-11 -19 -3 -18 -18 -17 -18 -20
-11 -19 -3 -18 -18 -17 -18 -20
-12 -20 -3 -17 -18 -17 -19 -21
-12 -20 -3 -17 -18 -17 -19 -21
-12 -20 -3 -17 -18 -17 -19 -21
-12 -20 -3 -17 -18 -17 -19 -21
-12 -20 -3 -17 -18 -17 -19 -21
-11 -19 -3 -17 -17 -18 -18 -20
-11 -19 -3 -17 -17 -18 -19 -21
-11 -19 -3 -17 -17 -19 -19 -21
-11 -19 -3 -17 -17 -19 -20 -22
-11 -19 -3 -17 -17 -19 -20 -22
-9 -19 1 -9 -13 -18 -20 -23
-7 -19 3 -2 -8 -15 -18 -23
-5 -20 5 7 -2 -13 -16 -23
-3 -20 7 15 4 -10 -14 -23
0 -20 9 22 9 -8 -13 -23
8 -15 15 38 29 12 5 -12
16 -8 21 56 51 31 22 0
24 0 27 73 71 51 39 11
32 6 33 90 93 71 58 22
40 13 39 107 114 91 75 33
54 36 32 99 130 118 105 58
68 60 22 89 145 146 135 84
81 85 13 79 160 174 164 109
96 108 4 69 176 201 195 135
109 132 -6 59 191 229 225 159
107 140 -25 16 163 219 225 165
103 146 -46 -29 133 204 222 171
100 153 -66 -74 103 191 219 176
96 160 -87 -119 72 178 216 180
93 167 -107 -164 42 163 213 185
64 148 -108 -191 -3 118 169 158
34 128 -109 -217 -48 71 121 128
5 107 -110 -242 -93 24 75 98
-25 87 -111 -267 -138 -22 29 67
-55 66 -112 -293 -183 -69 -17 37
-59 51 -110 -279 -186 -81 -32 21
-62 35 -107 -262 -186 -92 -46 6
-64 21 -104 -244 -186 -102 -59 -11
-67 6 -101 -227 -186 -112 -72 -26
-69 -10 -98 -210 -186 -122 -86 -43
-64 -12 -88 -186 -165 -113 -80 -43
-57 -13 -76 -162 -145 -101 -73 -40
-49 -14 -65 -139 -124 -89 -65 -38
-41 -15 -55 -114 -103 -77 -58 -36
-34 -16 -44 -91 -82 -65 -51 -35
-30 -17 -36 -78 -72 -59 -47 -33
-27 -17 -30 -67 -62 -53 -41 -32
-23 -17 -23 -56 -53 -47 -37 -30
-19 -17 -17 -44 -44 -40 -33 -29
-16 -17 -10 -32 -33 -34 -29 -28
-15 -18 -9 -29 -31 -32 -28 -27
-14 -18 -8 -25 -29 -31 -28 -27
-13 -18 -7 -22 -27 -30 -27 -27
-12 -18 -6 -19 -25 -29 -27 -27
-11 -18 -5 -16 -23 -28 -27 -27
-10 -18 -3 -14 -21 -27 -26 -27
-10 -18 -2 -12 -19 -26 -25 -27
-10 -19 0 -10 -18 -25 -24 -27
-10 -19 1 -8 -16 -24 -23 -27
-10 -19 2 -6 -15 -23 -23 -27
-9 -20 3 -5 -14 -22 -22 -26
-8 -19 3 -4 -14 -21 -21 -25
-7 -18 3 -3 -14 -21 -21 -24
-6 -17 3 -2 -14 -20 -20 -23
-5 -17 3 -2 -14 -20 -20 -22
-4 -16 3 1 -12 -19 -19 -21
-4 -17 4 2 -11 -19 -19 -21
-4 -17 5 3 -10 -18 -19 -21
-4 -18 6 4 -9 -18 -19 -21
-4 -18 6 5 -8 -18 -19 -21
-3 -19 7 6 -7 -17 -19 -21
-3 -19 6 6 -7 -17 -18 -21
-2 -18 6 6 -8 -16 -18 -20
-2 -18 5 6 -8 -16 -17 -20
-2 -18 5 6 -8 -16 -17 -20
0 -17 4 6 -8 -15 -16 -19
0 -17 5 7 -7 -14 -16 -19
0 -17 6 8 -6 -14 -16 -19
0 -17 7 9 -5 -13 -16 -19
0 -17 8 10 -4 -13 -16 -19
0 -17 9 11 -3 -12 -16 -20
1 -16 8 11 -3 -11 -15 -20
1 -15 7 11 -3 -11 -15 -19
2 -14 6 11 -3 -10 -14 -19
2 -13 6 11 -3 -10 -14 -19
3 -12 5 12 -2 -9 -13 -18
3 -12 6 13 0 -9 -13 -18
3 -12 6 14 1 -9 -13 -18
3 -12 7 15 2 -9 -13 -18
3 -12 7 16 2 -9 -13 -18
3 -13 8 17 3 -8 -13 -19
3 -13 8 17 3 -8 -13 -18
3 -13 7 18 3 -8 -13 -18
3 -13 7 18 3 -8 -13 -17
3 -13 7 18 3 -8 -13 -17
3 -12 6 20 5 -7 -12 -16
3 -12 6 21 6 -7 -12 -16
4 -12 7 23 7 -7 -12 -17
4 -12 7 24 8 -7 -12 -17
4 -12 7 25 9 -7 -12 -17
5 -12 8 27 10 -6 -12 -17
6 -11 8 28 10 -6 -11 -16
7 -11 8 30 10 -5 -11 -15
8 -10 8 31 10 -5 -10 -14
8 -10 8 32 10 -5 -10 -13
9 -9 7 35 12 -4 -9 -12
9 -9 8 37 14 -4 -9 -13
9 -10 9 39 15 -3 -9 -14
9 -10 10 43 17 -3 -9 -15
9 -10 10 45 18 -3 -9 -15
10 -11 11 46 19 -2 -7 -15
10 -11 11 46 19 0 -6 -14
11 -10 11 47 19 1 -5 -12
11 -10 11 47 19 2 -4 -11
11 -10 11 47 19 2 -3 -10
12 -9 11 49 20 3 -2 -9
12 -9 11 50 20 2 -3 -9
12 -8 11 52 20 2 -4 -9
12 -8 11 53 20 1 -5 -9
12 -8 11 54 20 1 -6 -9
12 -7 12 55 21 0 -7 -10
12 -6 12 54 21 0 -7 -9
12 -5 12 54 21 1 -6 -8
12 -4 12 53 21 1 -6 -7
12 -3 12 53 21 1 -6 -7
12 -2 13 52 21 2 -5 -6
13 -2 13 51 20 1 -6 -7
13 -2 13 51 20 0 -6 -7
14 -2 13 50 19 -2 -7 -8
14 -2 13 50 19 -3 -7 -8
14 0 13 48 17 -4 -8 -9
13 1 13 47 16 -4 -8 -8
12 3 12 46 14 -4 -8 -8
11 4 12 45 13 -4 -8 -7
10 5 12 44 12 -4 -8 -7
9 6 11 43 11 -5 -7 -6
9 6 11 42 11 -4 -7 -6
9 6 11 42 12 -4 -6 -6
9 6 11 40 12 -3 -6 -6
9 6 11 40 12 -3 -6 -6
9 6 12 38 13 -2 -5 -5
9 6 12 37 13 -2 -5 -4
9 6 12 35 13 -2 -4 -3
9 6 12 34 13 -2 -4 -2
9 6 12 33 13 -2 -4 -2
9 6 12 31 12 -3 -3 0
9 6 12 30 12 -3 -3 -2
9 6 12 28 12 -2 -3 -2
9 6 12 26 12 -2 -3 -3
9 6 12 25 12 -2 -3 -3
8 6 12 23 11 0 -2 -4
8 6 11 21 10 0 -2 -4
8 5 10 19 9 0 -2 -4
8 5 9 17 7 0 -2 -4
8 5 9 15 6 0 -2 -4
7 4 8 14 5 1 0 -4
6 3 8 13 5 0 0 -4
6 2 8 12 4 0 -2 -4
5 1 8 11 4 -2 -2 -4
5 1 8 10 4 -2 -2 -4
4 0 9 8 2 -3 -3 -5
4 0 8 7 0 -4 -4 -6
3 1 8 5 -3 -5 -5 -7
3 1 7 3 -4 -6 -6 -8
3 1 7 2 -6 -6 -7 -9
2 2 6 1 -7 -7 -8 -10
2 1 6 1 -7 -8 -9 -11
1 1 6 1 -7 -9 -9 -11
1 0 6 1 -7 -10 -10 -12
1 0 6 1 -7 -10 -10 -12
0 -2 7 0 -7 -11 -11 -13
0 -2 7 0 -7 -11 -11 -13
0 -2 7 0 -8 -12 -12 -13
0 -2 7 0 -8 -12 -12 -13
0 -2 7 0 -8 -12 -12 -13
0 -3 6 -2 -9 -13 -13 -12
0 -3 6 -2 -8 -13 -13 -12
0 -4 6 -2 -8 -13 -12 -12
0 -4 6 -2 -7 -13 -12 -12
0 -4 6 -2 -7 -13 -12 -12
-2 -5 7 0 -6 -12 -11 -12
-2 -5 6 0 -6 -12 -11 -12
-2 -5 6 -2 -7 -12 -11 -11
-2 -5 5 -2 -7 -12 -11 -11
-2 -5 5 -2 -7 -12 -11 -11
0 -4 4 -3 -8 -11 -10 -10
0 -4 4 -3 -7 -11 -10 -10
0 -5 5 -3 -7 -10 -9 -10
0 -5 5 -3 -6 -10 -9 -10
0 -5 5 -3 -6 -10 -9 -10
0 -6 6 -2 -5 -9 -8 -9
0 -6 6 -2 -5 -9 -8 -9
0 -6 6 -2 -6 -9 -8 -9
0 -6 6 -2 -6 -9 -8 -9
0 -6 6 -2 -6 -9 -8 -9
-2 -6 6 0 -7 -10 -9 -9
-2 -6 6 0 -6 -9 -9 -9
-2 -6 6 1 -5 -8 -8 -9
-2 -6 6 1 -4 -7 -8 -9
-2 -6 6 1 -4 -7 -8 -9
0 -7 7 2 -3 -6 -7 -8
0 -7 7 2 -4 -6 -7 -8
0 -7 6 2 -5 -6 -7 -8
0 -7 6 2 -6 -6 -7 -8
0 -7 6 2 -6 -6 -7 -8
-2 -7 5 1 -7 -7 -7 -9
-2 -7 6 1 -6 -7 -7 -9
-2 -7 7 1 -5 -7 -7 -9
-2 -7 8 1 -4 -7 -7 -9
-2 -7 8 1 -4 -7 -7 -9
-2 -5 9 2 -3 -7 -7 -9
-2 -2 9 2 -3 -6 -6 -8
-2 1 9 2 -2 -5 -6 -7
-2 4 9 2 -2 -4 -5 -6
-2 6 9 2 -2 -4 -5 -5
-2 7 10 1 0 -3 -4 -4
-2 7 12 2 1 -3 -4 -4
-2 7 13 3 1 -2 -4 -4
-2 7 14 4 2 -2 -4 -4
-2 7 15 4 2 -2 -4 -4
0 7 16 5 3 0 -3 -4
0 9 16 5 3 1 -2 -3
1 10 15 5 3 1 0 -2
1 11 15 5 3 2 1 0
1 12 15 5 3 2 2 0
2 13 14 4 2 3 3 1
3 14 12 3 2 4 4 2
3 15 11 2 2 4 4 3
4 16 10 1 2 5 5 4
4 17 9 1 2 5 5 4
5 18 6 -2 2 5 5 5
5 18 3 -4 0 3 4 5
5 17 1 -7 -4 1 2 5
5 17 -3 -9 -6 -2 0 5
5 17 -6 -11 -8 -4 -2 5
5 16 -7 -12 -9 -5 -3 4
5 15 -7 -12 -10 -5 -3 3
5 15 -7 -13 -10 -5 -3 3
5 14 -7 -13 -11 -5 -3 2
5 14 -7 -13 -11 -5 -3 2
4 13 -6 -14 -12 -6 -4 1
6 13 -6 -13 -11 -5 -3 3
7 12 -6 -12 -11 -5 -2 4
8 12 -6 -11 -10 -4 0 5
9 12 -6 -11 -10 -4 1 6
10 9 -5 -10 -9 -3 2 6
9 5 -3 -8 -8 -3 1 5
8 2 -2 -7 -8 -3 1 3
7 -2 0 -6 -7 -3 0 1
6 -6 1 -5 -7 -3 0 0
4 -8 2 -5 -6 -5 -3 -2
2 -9 2 -6 -7 -6 -5 -3
0 -11 1 -7 -8 -7 -7 -4
-3 -13 1 -9 -9 -9 -9 -5
-5 -14 1 -10 -10 -10 -11 -6
-6 -15 0 -11 -11 -11 -12 -7
-7 -16 0 -12 -13 -13 -13 -9
-7 -17 -2 -12 -14 -14 -13 -10
-8 -18 -2 -13 -15 -15 -14 -11
-8 -19 -2 -13 -16 -16 -14 -12
-9 -20 -3 -14 -17 -17 -15 -13
-9 -20 -3 -14 -17 -17 -15 -13
-9 -20 -4 -14 -17 -17 -15 -13
-9 -20 -4 -14 -17 -17 -15 -13
-9 -20 -4 -14 -17 -17 -15 -13
-8 -19 -5 -15 -17 -18 -15 -13
-8 -19 -5 -15 -17 -18 -15 -13
-8 -19 -4 -15 -17 -19 -15 -14
-8 -19 -4 -15 -17 -19 -15 -14
-8 -19 -4 -15 -17 -19 -15 -14
-8 -20 -3 -14 -16 -20 -16 -15
-8 -20 -3 -14 -16 -20 -16 -15
-8 -20 -4 -14 -16 -20 -17 -16
-8 -20 -4 -14 -16 -20 -17 -16
-8 -20 -4 -14 -16 -20 -17 -16
-9 -20 -5 -15 -17 -21 -18 -17
-9 -20 -5 -15 -17 -21 -18 -18
-9 -20 -5 -14 -17 -20 -18 -18
-9 -20 -5 -14 -17 -20 -18 -19
-9 -20 -5 -14 -17 -20 -18 -19
-9 -19 -4 -13 -17 -19 -17 -20
-9 -20 -4 -13 -16 -19 -17 -20
-9 -21 -4 -13 -16 -19 -17 -20
-9 -21 -4 -13 -15 -19 -17 -20
-9 -22 -4 -13 -15 -19 -17 -20
-7 -23 -3 -6 -10 -17 -17 -20
-6 -23 1 3 -4 -14 -15 -20
-5 -23 4 11 4 -11 -14 -20
-3 -23 6 19 10 -8 -12 -20
-2 -23 9 27 16 -5 -10 -20
6 -16 13 42 34 13 6 -11
15 -7 19 58 56 34 25 2
24 3 24 73 78 57 45 14
32 11 29 90 101 79 64 27
42 20 34 105 123 102 84 39
53 42 29 101 140 130 113 63
65 67 18 88 154 159 145 90
77 93 7 74 169 189 177 116
90 118 -5 62 184 220 210 143
102 144 -16 49 198 250 241 170
102 154 -33 12 177 244 246 179
96 158 -54 -34 140 227 240 182
91 162 -74 -79 104 209 235 185
85 167 -95 -126 67 190 229 188
78 171 -115 -172 31 172 223 192
56 154 -121 -198 -11 129 183 169
28 130 -119 -219 -55 77 131 133
0 104 -118 -239 -99 25 78 98
-28 78 -117 -260 -144 -27 26 63
-57 53 -116 -280 -188 -79 -27 28
-65 37 -113 -274 -199 -99 -49 10
-64 25 -111 -256 -196 -106 -60 -4
-63 14 -108 -238 -194 -113 -70 -16
-63 2 -105 -220 -192 -120 -81 -28
-62 -10 -102 -201 -189 -128 -93 -40
-57 -14 -93 -180 -172 -120 -90 -44
-51 -15 -80 -155 -148 -106 -80 -40
-45 -16 -68 -132 -124 -93 -72 -38
-37 -16 -56 -107 -101 -79 -63 -36
-31 -17 -44 -83 -77 -65 -54 -33
-27 -18 -35 -69 -64 -57 -48 -31
-24 -18 -29 -58 -54 -50 -43 -29
-21 -18 -22 -48 -44 -43 -37 -27
-18 -18 -16 -36 -34 -35 -32 -24
-14 -18 -9 -26 -24 -28 -27 -22
-13 -18 -7 -20 -20 -26 -25 -21
-12 -18 -5 -17 -17 -24 -24 -21
-11 -18 -4 -14 -15 -23 -23 -21
-10 -18 -2 -11 -13 -21 -23 -21
-9 -18 0 -7 -10 -20 -22 -21
-8 -19 1 -6 -8 -19 -21 -22
-8 -19 2 -5 -7 -19 -21 -22
-8 -20 2 -4 -5 -18 -21 -22
-8 -20 3 -3 -4 -18 -21 -22
-8 -20 3 -2 -2 -18 -21 -22
-7 -21 4 0 0 -17 -20 -22
-6 -20 5 2 1 -17 -19 -22
-6 -20 5 3 2 -16 -19 -21
-5 -19 6 5 3 -16 -18 -21
-5 -19 6 6 4 -16 -18 -21
-4 -18 7 7 5 -15 -17 -20
-4 -18 7 7 5 -14 -16 -19
-3 -18 7 7 6 -13 -15 -19
-3 -18 7 7 6 -13 -15 -18
-3 -18 7 7 6 -12 -14 -18
-2 -19 7 8 7 -11 -13 -17
-2 -18 8 9 8 -11 -13 -17
0 -17 8 10 8 -11 -13 -17
0 -16 9 11 9 -11 -13 -17
0 -15 9 12 9 -11 -13 -17
1 -14 10 13 10 -11 -14 -18
1 -14 10 13 11 -10 -14 -18
1 -14 10 13 11 -10 -13 -18
1 -14 10 13 12 -9 -13 -18
1 -14 10 13 12 -9 -13 -18
1 -15 9 14 13 -8 -12 -18
1 -15 9 16 14 -7 -12 -17
1 -15 9 17 14 -6 -11 -17
1 -15 9 18 15 -6 -11 -16
1 -15 9 19 15 -5 -11 -16
2 -15 10 20 16 -4 -10 -15
2 -14 10 20 17 -4 -10 -15
3 -13 10 20 18 -3 -10 -15
3 -13 10 20 18 -3 -10 -15
3 -12 10 20 19 -3 -10 -15
4 -11 9 21 20 -2 -9 -15
5 -11 9 23 21 -2 -9 -15
6 -11 9 24 22 0 -9 -15
6 -11 9 25 23 0 -9 -15
7 -11 9 26 24 0 -9 -15
8 -11 9 27 25 1 -8 -15
8 -11 9 29 26 2 -7 -15
8 -11 10 30 27 2 -7 -14
8 -11 10 32 28 3 -6 -14
8 -11 10 33 29 3 -6 -14
8 -11 11 35 30 4 -5 -13
8 -11 11 37 31 4 -5 -12
8 -11 12 38 32 4 -5 -12
8 -11 12 40 32 4 -5 -11
8 -11 12 43 33 4 -5 -11
7 -12 13 45 35 4 -5 -10
8 -11 13 47 37 5 -4 -10
9 -10 14 48 39 6 -3 -9
9 -10 14 50 42 6 -3 -9
10 -9 14 52 44 7 -2 -9
11 -8 15 53 45 8 0 -8
11 -8 15 55 46 8 0 -8
12 -7 16 56 47 8 0 -8
12 -7 16 58 47 8 0 -8
12 -7 16 59 48 8 0 -8
13 -6 17 60 49 7 -2 -9
13 -6 17 60 49 7 -2 -8
14 -5 17 61 49 8 0 -7
14 -5 17 61 49 9 0 -7
14 -5 17 61 49 9 0 -6
15 -4 18 62 50 10 1 -5
15 -4 18 62 50 10 1 -5
14 -3 18 62 49 9 1 -5
13 -2 18 62 48 8 1 -5
13 -2 18 62 48 8 1 -5
12 0 18 63 47 7 1 -5
12 0 18 62 46 7 1 -5
12 1 18 61 45 6 0 -5
12 2 18 60 45 5 -2 -5
12 2 18 59 44 5 -2 -5
11 3 19 58 43 4 -3 -5
11 3 19 57 42 4 -3 -5
10 3 19 56 40 3 -4 -5
9 3 19 55 39 2 -4 -5
9 3 19 54 38 2 -4 -5
8 3 18 52 37 1 -5 -5
8 3 18 51 37 1 -4 -4
8 3 18 49 37 2 -3 -3
8 3 18 47 37 2 -3 -3
8 3 18 45 37 2 -2 -2
8 4 17 44 36 3 0 0
8 4 17 43 36 3 0 0
8 4 17 40 36 4 1 1
8 4 17 39 36 5 2 2
8 4 17 38 36 5 2 2
7 4 17 36 35 6 3 3
7 4 17 34 35 6 3 3
7 4 17 32 34 6 3 3
7 4 17 30 33 6 3 3
7 4 17 28 33 6 3 3
6 3 16 26 32 7 4 2
5 3 16 25 31 7 4 2
4 2 15 23 29 6 3 2
4 2 15 21 28 5 3 2
3 2 15 19 27 5 3 2
2 1 14 17 26 4 2 1
2 1 14 16 25 4 2 1
1 0 13 14 24 3 2 1
1 0 13 12 23 3 2 1
1 0 13 10 22 3 2 1
0 -2 12 9 21 2 1 0
0 -3 12 8 20 1 0 0
-2 -4 11 7 19 0 -2 -2
-2 -5 11 6 18 0 -2 -2
-2 -6 11 5 17 -2 -3 -2
-3 -7 10 4 16 -3 -4 -3
-3 -7 10 3 16 -3 -4 -3
-4 -7 10 2 15 -4 -5 -4
-5 -7 10 2 14 -4 -5 -5
-5 -7 10 1 14 -4 -5 -5
-6 -6 10 0 13 -5 -6 -6
-6 -6 10 0 13 -5 -6 -6
-6 -7 10 0 12 -6 -7 -6
-6 -7 10 0 12 -6 -7 -6
-6 -7 10 0 12 -6 -7 -6
-7 -8 10 -2 11 -7 -8 -7
-7 -8 10 -2 11 -7 -8 -7
-7 -9 10 0 11 -7 -8 -7
-7 -9 10 0 11 -7 -8 -7
-7 -9 10 0 11 -7 -8 -7
-8 -10 10 1 12 -6 -7 -8
-8 -10 10 1 12 -6 -7 -8
-8 -10 10 1 12 -6 -7 -8
-8 -10 10 1 12 -6 -7 -8
-8 -10 10 1 12 -6 -7 -8
-7 -11 11 1 11 -6 -6 -8
-7 -11 11 1 11 -6 -6 -8
-7 -11 11 2 12 -6 -6 -7
-7 -11 11 2 12 -6 -6 -7
-7 -11 11 2 12 -6 -6 -7
-7 -11 12 3 13 -5 -5 -6
-7 -11 12 3 13 -5 -5 -6
-7 -11 11 3 13 -5 -5 -6
-7 -11 10 3 13 -5 -5 -6
-7 -11 10 3 13 -5 -5 -6
-6 -10 9 2 12 -5 -5 -6
-6 -10 9 2 12 -5 -5 -6
-6 -10 9 2 12 -5 -5 -6
-6 -10 9 2 12 -5 -5 -6
-6 -10 9 2 12 -5 -5 -6
-6 -10 10 1 11 -4 -4 -6
-6 -10 10 1 11 -4 -4 -6
-5 -10 10 1 11 -4 -5 -6
-5 -10 10 1 11 -4 -5 -6
-5 -10 10 1 11 -4 -5 -6
-4 -9 10 0 10 -3 -6 -6
-4 -9 10 0 10 -3 -6 -6
-5 -8 10 0 11 -3 -5 -5
-5 -8 10 0 11 -3 -5 -5
-5 -8 10 0 11 -3 -5 -5
-6 -6 10 1 12 -2 -4 -4
-6 -5 11 1 12 -2 -4 -4
-5 -3 13 2 12 0 -3 -3
-5 0 14 2 12 1 -3 -3
-5 2 15 2 12 1 -3 -3
-4 3 16 3 12 2 -2 -2
-4 4 16 3 12 2 -2 0
-4 6 16 3 12 2 -2 1
-4 7 16 3 12 2 -2 1
-4 8 16 3 12 2 -2 2
-5 9 17 3 13 3 0 3
-5 9 17 3 13 4 1 3
-4 10 17 3 13 5 2 4
-3 10 17 3 13 5 3 5
-3 10 17 3 13 6 4 5
-2 11 18 3 13 7 5 6
0 12 17 3 13 7 5 7
1 13 16 2 13 7 6 8
1 13 15 2 13 7 6 9
2 14 14 2 13 7 6 10
3 15 12 0 13 8 7 11
3 15 9 -3 11 7 6 10
4 15 6 -6 9 5 5 9
4 15 4 -8 7 4 4 8
4 15 1 -10 4 3 3 7
5 14 -2 -12 3 2 2 6
4 14 -2 -12 2 1 2 6
3 13 -2 -13 1 0 1 6
3 13 -2 -14 0 0 0 6
2 13 -2 -14 -2 -2 0 6
1 12 -2 -15 -3 -3 -2 7
2 11 -2 -14 -3 -3 0 7
3 10 -2 -13 -2 -2 1 8
4 10 -2 -13 -2 -2 1 8
5 9 -2 -12 -2 -2 2 8
6 8 0 -11 0 0 3 9
5 6 0 -11 0 0 3 8
4 4 1 -10 0 0 2 7
4 3 2 -9 0 0 2 6
3 1 2 -9 0 0 2 5
2 0 3 -8 -2 -3 0 3
0 -3 3 -9 -3 -5 -3 1
-2 -4 2 -10 -5 -7 -6 -2
-3 -5 2 -10 -6 -9 -8 -4
-5 -7 2 -11 -7 -11 -10 -6
-6 -8 1 -12 -8 -12 -12 -7
-6 -10 1 -13 -10 -12 -13 -8
-7 -12 0 -14 -12 -13 -14 -9
-8 -14 -2 -15 -14 -14 -14 -9
-8 -16 -2 -16 -16 -14 -15 -10
-9 -17 -3 -17 -17 -15 -16 -11
-9 -17 -3 -17 -17 -15 -16 -11
-8 -17 -3 -17 -17 -15 -16 -11
-7 -17 -3 -17 -17 -15 -16 -11
-7 -17 -3 -17 -17 -15 -16 -11
-6 -18 -3 -17 -17 -16 -17 -12
-6 -19 -3 -17 -17 -16 -17 -12
-7 -20 -3 -17 -17 -16 -17 -13
-8 -20 -3 -17 -17 -16 -17 -13
-8 -21 -3 -17 -17 -16 -17 -13
-9 -22 -3 -16 -18 -16 -17 -14
-9 -22 -3 -16 -18 -16 -17 -14
-9 -22 -2 -16 -18 -16 -17 -14
-9 -22 0 -16 -18 -16 -17 -14
-9 -22 0 -16 -18 -16 -17 -14
-10 -23 1 -15 -18 -16 -17 -13
-10 -23 1 -15 -18 -16 -17 -13
-10 -23 1 -15 -18 -16 -17 -13
-10 -23 1 -15 -18 -16 -17 -13
-10 -23 1 -15 -18 -16 -17 -13
-11 -24 1 -14 -19 -15 -16 -12
-11 -24 1 -14 -19 -15 -16 -12
-11 -24 1 -14 -19 -16 -16 -13
-11 -24 1 -14 -19 -16 -16 -14
-11 -24 1 -14 -19 -16 -16 -14
-9 -25 1 -10 -18 -16 -17 -15
-7 -25 5 -2 -13 -13 -17 -15
-5 -25 8 7 -7 -10 -17 -14
-3 -25 11 14 -2 -8 -17 -14
0 -25 15 22 4 -5 -17 -14
5 -21 19 34 17 8 -8 -8
13 -14 23 50 38 27 12 4
20 -6 28 66 59 48 31 15
28 3 32 81 79 67 51 26
35 11 36 98 101 88 69 36
46 27 34 102 120 112 95 55
59 52 24 92 140 142 126 80
72 76 14 82 158 171 156 106
86 101 4 72 178 200 188 132
98 126 -7 63 196 230 219 156
104 141 -23 35 189 239 233 172
101 149 -46 -11 154 228 230 177
98 156 -68 -57 120 218 226 183
96 163 -91 -102 86 206 223 188
93 172 -114 -148 51 196 220 193
76 164 -126 -183 10 163 194 181
48 142 -127 -208 -37 110 146 151
18 119 -128 -233 -83 57 99 120
-11 97 -129 -259 -131 4 51 90
-39 74 -130 -283 -178 -50 3 59
-55 56 -129 -287 -201 -80 -27 36
-56 42 -124 -269 -200 -90 -40 22
-58 27 -119 -249 -199 -99 -54 7
-59 13 -115 -231 -199 -108 -66 -8
-60 -2 -111 -213 -198 -117 -79 -22
-59 -9 -102 -191 -187 -116 -83 -30
-53 -10 -90 -166 -164 -104 -75 -28
-47 -11 -76 -143 -142 -92 -67 -27
-40 -11 -63 -119 -120 -79 -59 -26
-34 -12 -51 -95 -98 -67 -51 -24
-30 -13 -40 -77 -82 -57 -45 -23
-27 -14 -34 -65 -72 -51 -40 -21
-24 -15 -27 -54 -63 -45 -36 -20
-21 -17 -20 -41 -53 -38 -32 -19
-18 -18 -14 -29 -43 -32 -28 -17
-16 -19 -10 -22 -37 -28 -25 -16
-15 -19 -8 -20 -35 -27 -25 -16
-15 -19 -7 -17 -34 -26 -24 -16
-14 -19 -6 -14 -33 -24 -23 -16
-13 -19 -4 -12 -31 -23 -23 -16
-12 -20 -3 -10 -30 -22 -22 -16
-11 -20 -2 -8 -29 -21 -21 -16
-11 -21 0 -6 -28 -20 -21 -16
-10 -22 2 -4 -27 -19 -20 -16
-9 -22 3 -2 -26 -18 -19 -16
-8 -23 4 1 -25 -17 -18 -15
-8 -23 4 1 -25 -17 -18 -15
-8 -23 4 1 -25 -17 -18 -15
-9 -22 4 1 -25 -17 -17 -15
-9 -22 4 1 -25 -17 -17 -15
-10 -21 4 1 -25 -16 -16 -14
-9 -21 5 3 -24 -16 -16 -14
-9 -21 6 4 -23 -16 -16 -14
-8 -20 7 6 -21 -16 -16 -14
-7 -20 8 8 -20 -16 -16 -14
-6 -19 9 9 -19 -16 -15 -14
-6 -19 9 9 -19 -16 -15 -14
-6 -19 9 10 -19 -15 -15 -14
-6 -18 8 11 -19 -14 -14 -13
-6 -18 8 11 -19 -14 -14 -13
-5 -17 7 12 -19 -13 -13 -12
-5 -17 7 12 -18 -13 -13 -12
-5 -17 7 13 -18 -13 -13 -12
-5 -17 7 14 -17 -12 -12 -12
-5 -17 7 14 -16 -12 -12 -12
-6 -18 8 15 -15 -11 -11 -13
-5 -17 8 15 -15 -10 -11 -13
-4 -16 8 15 -15 -10 -11 -13
-3 -15 8 16 -15 -9 -11 -13
-2 -14 8 16 -15 -8 -11 -13
0 -13 8 17 -14 -7 -11 -12
0 -13 8 18 -13 -6 -11 -12
0 -13 8 19 -12 -6 -11 -12
0 -13 9 20 -11 -5 -11 -12
0 -13 9 21 -10 -4 -11 -12
-2 -12 10 22 -9 -3 -10 -13
-2 -11 10 22 -9 -3 -10 -13
0 -11 10 23 -9 -3 -10 -12
1 -10 10 24 -9 -3 -10 -11
1 -9 10 24 -9 -3 -10 -11
2 -8 9 25 -9 -2 -9 -10
2 -8 9 27 -7 -2 -9 -10
2 -8 9 29 -6 -2 -8 -10
2 -9 10 31 -4 -2 -7 -10
2 -9 10 33 -2 -2 -7 -10
2 -10 11 35 0 0 -6 -9
2 -10 11 36 1 0 -6 -9
3 -9 11 37 1 0 -6 -8
4 -8 12 38 2 0 -6 -7
4 -8 12 39 3 0 -6 -7
5 -7 13 42 4 1 -6 -6
5 -7 14 44 6 1 -6 -6
6 -7 14 46 7 1 -6 -6
7 -7 15 49 8 2 -6 -6
7 -7 16 51 10 2 -6 -6
8 -7 17 53 11 3 -5 -5
8 -7 17 53 11 3 -5 -5
8 -6 17 54 12 3 -5 -5
8 -5 17 55 13 4 -4 -4
8 -5 17 55 13 4 -4 -4
7 -4 18 56 14 5 -3 -3
7 -4 18 57 14 5 -3 -3
7 -4 18 58 15 5 -2 -3
6 -3 18 60 16 5 0 -3
6 -3 18 61 16 5 0 -3
5 -2 19 62 17 6 1 -3
5 -2 19 62 17 6 1 -3
5 0 19 62 17 6 1 -3
5 1 20 62 17 6 1 -3
5 1 20 62 17 6 1 -3
6 2 21 61 16 5 1 -2
6 2 21 61 15 5 1 -2
6 2 21 61 15 5 1 -2
6 2 22 60 14 4 0 -2
6 2 22 60 13 4 0 -2
6 1 23 59 12 3 -2 -3
5 1 23 57 12 3 -2 -3
5 1 22 56 12 3 -2 -3
4 2 21 55 11 3 -2 -2
3 2 21 53 11 3 -2 -2
2 3 20 52 10 2 -2 0
2 3 20 51 10 2 -2 0
2 3 20 49 9 2 -2 0
3 4 20 48 8 2 -2 0
3 4 20 46 8 2 -2 0
4 5 20 45 7 2 0 1
4 5 20 43 7 2 0 1
4 5 20 42 7 2 1 1
4 6 19 39 7 2 2 2
4 6 19 37 7 2 2 2
3 7 18 36 7 2 3 3
3 7 18 34 7 2 3 3
3 7 18 33 7 2 3 3
3 6 18 31 7 3 3 3
3 6 18 29 7 3 3 3
3 5 17 28 6 4 4 2
3 5 17 26 6 4 4 2
3 5 16 24 5 4 4 2
2 5 15 22 4 4 4 2
2 5 15 20 4 4 4 2
1 4 14 18 3 4 5 2
1 3 13 16 2 4 5 2
0 2 13 15 1 3 4 1
-2 1 12 13 0 2 3 0
-2 0 11 11 -2 2 3 0
-3 -2 10 10 -3 1 2 -2
-3 -2 10 9 -4 0 1 -2
-3 -2 9 8 -4 -2 1 -3
-4 -2 8 6 -5 -3 0 -4
-4 -2 8 5 -6 -4 -2 -4
-5 -3 7 4 -7 -5 -3 -5
-5 -3 7 4 -7 -5 -3 -5
-5 -3 7 4 -7 -5 -3 -6
-6 -4 7 3 -7 -6 -3 -7
-6 -4 7 3 -7 -6 -3 -7
-7 -5 7 2 -8 -7 -4 -8
-7 -5 7 2 -8 -7 -4 -8
-7 -5 7 2 -8 -7 -4 -7
-7 -6 7 2 -8 -7 -4 -6
-7 -6 7 2 -8 -7 -4 -6
-7 -7 7 1 -9 -6 -4 -5
-7 -7 7 1 -9 -6 -4 -5
-7 -7 7 1 -9 -6 -4 -5
-7 -7 8 1 -9 -6 -4 -5
-7 -7 8 1 -9 -6 -4 -5
-8 -7 9 2 -8 -6 -4 -5
-8 -7 9 2 -8 -6 -4 -5
-8 -7 8 2 -8 -6 -4 -5
-8 -7 7 2 -8 -6 -4 -5
-8 -7 7 2 -8 -6 -4 -5
-7 -7 6 1 -8 -7 -5 -6
-7 -7 6 1 -8 -7 -5 -6
-7 -7 6 1 -8 -7 -5 -6
-7 -7 6 1 -8 -7 -5 -6
-7 -7 6 1 -8 -7 -5 -6
-8 -7 7 1 -8 -7 -5 -6
-8 -7 7 1 -8 -7 -5 -6
-8 -7 7 1 -8 -7 -5 -6
-8 -6 7 1 -7 -7 -5 -6
-8 -6 7 1 -7 -7 -5 -6
-8 -5 8 2 -6 -7 -5 -6
-8 -5 8 2 -6 -7 -5 -6
-8 -5 8 2 -6 -7 -5 -6
-8 -5 8 2 -6 -7 -5 -7
-8 -5 8 2 -6 -7 -5 -7
-7 -6 7 2 -6 -6 -6 -8
-7 -6 7 2 -6 -6 -6 -8
-7 -6 7 2 -6 -6 -6 -8
-7 -7 7 2 -6 -6 -5 -8
-7 -7 7 2 -6 -6 -5 -8
-8 -8 7 2 -6 -5 -4 -7
-8 -8 7 2 -6 -5 -4 -7
-8 -8 7 2 -6 -5 -4 -7
-7 -8 7 2 -6 -5 -5 -7
-7 -8 7 2 -6 -5 -5 -7
-6 -8 8 2 -5 -6 -6 -7
-6 -7 9 2 -5 -6 -5 -6
-7 -6 10 2 -5 -5 -4 -6
-8 -5 11 2 -4 -4 -3 -5
-8 -4 12 2 -4 -4 -2 -4
-9 -3 13 3 -3 -3 0 -3
-9 -3 13 3 -2 -3 0 -3
-8 -2 14 4 0 -3 0 -3
-7 0 15 5 1 -2 0 -3
-7 0 15 5 2 -2 0 -3
-6 1 16 6 3 0 1 -2
-6 2 16 6 3 0 2 -2
-6 3 16 6 3 0 2 -2
-6 4 16 6 3 1 3 0
-6 5 16 6 3 1 4 0
-5 6 17 6 4 2 5 1
-4 8 17 6 4 3 5 2
-3 10 17 6 4 3 5 3
0 12 17 6 5 4 5 4
1 13 17 6 5 5 5 5
2 15 16 5 6 6 6 6
2 15 13 3 5 6 6 6
3 15 10 1 3 6 6 6
4 15 7 -2 2 5 6 6
4 15 4 -4 0 5 6 6
5 14 1 -6 -2 4 7 6
5 14 1 -7 -3 3 6 6
5 14 1 -7 -3 2 5 6
4 13 0 -8 -4 0 3 5
4 13 0 -9 -5 -2 2 5
3 12 -2 -10 -6 -3 1 4
3 12 -2 -10 -6 -3 1 4
4 12 -3 -11 -7 -3 1 4
5 12 -4 -12 -8 -4 1 4
5 12 -4 -12 -8 -4 1 4
6 13 -5 -13 -9 -5 0 4
6 11 -4 -12 -8 -5 0 4
6 8 -3 -10 -7 -5 0 4
6 6 0 -9 -5 -4 0 4
6 4 1 -7 -4 -4 0 4
7 2 2 -6 -3 -3 0 3
5 0 2 -6 -3 -4 -2 2
4 -2 2 -6 -3 -4 -2 1
2 -4 2 -6 -3 -5 -3 0
1 -5 2 -6 -3 -6 -4 -3
-2 -7 2 -7 -4 -7 -5 -4
-3 -9 2 -8 -6 -9 -7 -6
-3 -11 1 -9 -8 -11 -9 -7
-4 -12 1 -10 -10 -12 -10 -9
-5 -14 0 -12 -12 -14 -12 -10
-6 -16 -2 -13 -14 -16 -14 -12
-6 -16 -2 -13 -14 -16 -14 -12
-6 -17 -2 -13 -14 -16 -14 -12
-7 -17 -2 -13 -14 -16 -14 -12
-7 -18 -2 -13 -14 -16 -14 -12
-8 -19 -2 -13 -15 -16 -14 -13
-8 -20 -2 -13 -15 -16 -14 -13
-8 -20 -2 -13 -15 -16 -14 -13
-8 -21 -2 -13 -16 -17 -14 -14
-8 -22 -2 -13 -16 -17 -14 -14
-7 -23 -2 -14 -17 -18 -15 -15
-7 -23 -2 -14 -17 -18 -15 -15
-7 -23 -2 -14 -17 -18 -15 -15
-8 -23 -2 -14 -17 -18 -15 -15
-8 -23 -2 -14 -17 -18 -15 -15
-9 -23 -2 -13 -16 -19 -14 -15
-9 -23 -2 -13 -16 -19 -14 -15
-9 -23 -2 -13 -16 -19 -14 -15
-9 -23 -2 -12 -16 -19 -14 -15
-9 -23 -2 -12 -16 -19 -14 -15
-9 -23 0 -11 -15 -18 -15 -15
-9 -23 0 -11 -15 -18 -15 -15
-9 -23 0 -11 -15 -18 -15 -15
-9 -23 0 -11 -15 -17 -15 -15
-9 -23 0 -11 -15 -17 -15 -15
-8 -22 1 -12 -15 -16 -15 -15
-8 -23 2 -9 -13 -16 -15 -15
-8 -24 3 -6 -11 -16 -15 -16
-8 -25 4 -3 -10 -16 -15 -16
-8 -27 5 1 -8 -16 -15 -17
-6 -28 7 8 -3 -13 -13 -17
-2 -25 13 23 11 -4 -6 -13
3 -22 19 38 23 7 3 -9
7 -19 25 53 35 16 11 -5
12 -16 31 68 49 25 18 1
19 -9 36 80 64 39 31 9
32 7 35 87 88 67 58 28
47 23 34 93 111 95 85 47
61 38 33 99 135 121 111 66
75 55 32 105 157 149 137 85
88 72 26 101 174 172 161 104
97 95 7 68 171 183 181 126
107 116 -13 36 167 194 199 146
116 139 -31 4 162 205 219 168
126 161 -51 -29 158 217 237 188
127 175 -68 -64 141 214 242 198
102 160 -81 -105 91 174 209 181
78 146 -94 -146 40 135 175 162
55 133 -107 -187 -10 95 140 144
30 118 -120 -228 -60 55 106 126
9 103 -130 -258 -101 18 73 106
-9 85 -126 -259 -121 -11 43 80
-25 66 -122 -260 -143 -39 12 56
-41 48 -118 -261 -163 -68 -19 31
-59 29 -115 -263 -184 -97 -50 7
-70 14 -110 -257 -195 -116 -72 -13
-66 8 -101 -231 -178 -109 -69 -16
-61 2 -92 -205 -161 -102 -67 -20
-56 -5 -81 -180 -144 -95 -65 -23
-52 -10 -72 -154 -127 -88 -62 -27
-47 -15 -63 -130 -110 -79 -59 -30
-40 -16 -52 -110 -96 -70 -52 -28
-34 -16 -41 -91 -80 -61 -46 -27
-29 -17 -30 -71 -65 -51 -39 -25
-23 -18 -20 -51 -50 -41 -32 -24
-18 -19 -12 -35 -37 -34 -27 -22
-17 -19 -10 -30 -33 -31 -25 -21
-16 -19 -8 -26 -29 -28 -23 -20
-15 -19 -6 -21 -25 -25 -21 -19
-14 -19 -4 -16 -21 -23 -19 -18
-13 -20 -2 -12 -18 -20 -17 -17
-12 -21 0 -9 -17 -20 -17 -17
-12 -21 1 -7 -16 -20 -17 -18
-11 -22 2 -5 -15 -20 -17 -18
-10 -23 3 -2 -13 -20 -17 -19
-9 -24 4 1 -12 -19 -18 -20
-9 -24 4 2 -11 -18 -17 -19
-9 -24 4 2 -10 -17 -17 -19
-8 -24 5 3 -9 -16 -16 -18
-8 -24 5 4 -8 -14 -15 -17
-7 -23 6 5 -7 -13 -14 -16
-7 -23 6 6 -7 -13 -14 -16
-7 -23 6 7 -7 -13 -14 -16
-7 -23 6 8 -7 -13 -14 -17
-7 -23 6 9 -7 -13 -14 -17
-7 -23 7 10 -7 -14 -15 -18
-7 -23 7 10 -7 -14 -15 -17
-7 -23 7 10 -7 -14 -14 -17
-6 -23 8 10 -6 -13 -14 -16
-6 -23 8 10 -6 -13 -13 -15
-5 -22 9 11 -5 -12 -12 -14
-5 -22 9 12 -5 -12 -12 -14
-5 -22 9 12 -5 -12 -12 -14
-5 -21 9 13 -4 -12 -12 -15
-5 -21 9 14 -4 -12 -12 -15
-4 -20 9 15 -3 -11 -11 -16
-4 -20 9 15 -2 -10 -11 -16
-4 -20 9 15 1 -9 -11 -15
-4 -20 9 16 2 -8 -10 -15
-4 -20 9 16 3 -7 -10 -14
-3 -19 10 17 5 -6 -9 -13
-3 -19 10 17 5 -6 -9 -13
-2 -19 10 17 5 -5 -9 -13
-2 -18 11 18 5 -5 -8 -13
0 -18 11 18 5 -4 -8 -13
1 -17 12 19 5 -3 -7 -13
1 -17 12 20 6 -3 -7 -13
1 -17 12 21 7 -2 -6 -12
1 -17 12 22 8 0 -6 -11
1 -17 12 23 10 1 -5 -10
1 -16 12 24 11 2 -4 -9
1 -16 12 25 11 2 -4 -9
2 -16 12 27 11 2 -4 -9
2 -16 12 28 11 2 -4 -9
3 -16 12 29 11 2 -4 -9
4 -15 13 31 12 1 -5 -9
4 -15 13 31 13 1 -5 -9
4 -15 13 32 14 1 -4 -9
5 -15 13 33 15 2 -4 -8
5 -15 13 34 17 2 -3 -8
6 -14 12 35 18 3 -2 -7
6 -14 12 37 18 3 -2 -7
6 -13 13 39 18 3 -2 -7
7 -12 13 40 18 3 -2 -7
7 -11 14 43 18 3 -2 -7
8 -10 15 45 19 4 -2 -7
8 -10 15 45 20 5 -2 -7
8 -10 15 46 22 6 0 -6
8 -10 15 47 23 7 0 -6
8 -10 15 48 24 8 1 -5
9 -10 15 49 26 9 2 -4
9 -9 15 50 26 9 2 -4
9 -8 16 52 26 9 2 -4
9 -7 16 53 27 9 1 -4
9 -6 17 54 27 9 1 -4
9 -5 18 56 28 9 0 -3
9 -5 18 56 28 9 0 -3
9 -5 18 56 28 9 0 -3
9 -5 18 56 28 9 0 -3
9 -5 18 56 28 9 0 -3
10 -5 19 55 28 10 1 -3
10 -5 19 55 28 10 1 -3
9 -5 19 55 27 9 1 -3
9 -5 19 55 27 8 1 -3
8 -5 19 55 26 7 1 -3
7 -4 20 54 25 6 0 -2
7 -4 20 54 25 6 0 -2
7 -3 20 53 24 6 0 -2
7 -3 20 52 24 6 0 -2
7 -2 20 51 23 6 0 -2
7 0 19 50 22 6 0 0
7 0 19 49 21 6 0 0
7 0 19 48 20 6 0 0
7 1 19 47 19 6 0 0
7 1 19 46 17 6 0 0
7 2 18 45 16 6 -2 0
7 2 18 44 16 6 -2 0
7 3 18 43 17 7 0 1
6 3 18 42 17 8 1 1
6 4 18 40 18 9 2 2
5 5 18 39 19 10 3 3
5 5 18 38 19 10 3 3
5 5 18 36 19 10 3 3
5 5 17 35 19 10 3 3
5 5 17 34 19 10 3 3
6 6 16 32 18 10 4 4
6 6 16 30 18 10 4 4
6 6 15 28 18 10 4 4
6 5 15 25 17 10 4 5
6 5 14 23 17 10 4 5
7 4 13 21 16 11 5 6
6 3 13 20 15 10 5 6
5 2 13 18 14 9 4 5
4 1 13 17 13 8 3 5
3 0 13 16 11 7 2 4
2 -2 12 14 10 6 1 3
2 -3 12 12 9 6 1 3
2 -4 12 11 8 6 1 3
2 -5 12 9 7 6 1 3
2 -6 12 7 5 6 1 3
1 -7 11 5 4 6 1 2
1 -7 11 5 4 5 1 2
0 -7 11 5 4 4 0 1
0 -8 10 5 3 3 -2 1
-2 -8 10 5 3 2 -3 0
-3 -9 9 4 2 1 -4 -2
-3 -9 9 4 2 1 -4 -2
-3 -10 9 4 2 1 -4 -2
-3 -10 9 4 2 1 -4 -2
-3 -11 9 4 2 1 -4 -2
-4 -12 10 3 1 2 -4 0
-4 -12 10 3 1 2 -4 0
-4 -12 10 3 1 2 -4 0
-4 -12 10 3 1 2 -4 0
-4 -12 10 3 1 2 -4 0
-4 -12 9 3 1 2 -4 0
-4 -12 9 3 1 2 -4 0
-4 -12 9 3 1 2 -4 -2
-4 -11 9 3 1 2 -4 -2
-4 -11 9 3 1 2 -4 -3
-4 -10 8 2 0 3 -5 -4
-4 -10 8 2 0 3 -5 -4
-4 -10 8 2 1 3 -5 -4
-4 -10 8 3 1 3 -6 -4
-4 -10 8 3 2 3 -6 -4
-5 -10 9 4 3 3 -7 -3
-5 -10 9 4 3 3 -7 -3
-5 -10 9 4 3 4 -6 -3
-5 -11 9 4 3 4 -5 -3
-5 -11 9 4 3 5 -4 -3
-5 -12 10 4 3 6 -3 -2
-5 -12 10 4 3 6 -3 -2
-5 -12 10 4 3 6 -3 -2
-6 -12 10 4 3 6 -3 -2
-6 -12 10 4 3 6 -3 -2
-7 -11 9 3 3 5 -3 -2
-7 -11 9 3 3 5 -3 -2
-6 -11 9 3 3 5 -3 -2
-6 -11 9 3 3 5 -3 -2
-5 -11 9 3 3 5 -3 -2
-4 -11 9 2 3 4 -4 -3
-4 -11 9 2 3 4 -4 -3
-5 -11 9 2 3 4 -4 -3
-5 -10 10 2 2 4 -4 -3
-6 -10 10 2 2 4 -4 -3
-7 -9 11 2 1 3 -3 -4
-7 -9 11 2 1 3 -3 -4
-7 -9 11 2 2 3 -3 -3
-7 -9 12 2 2 4 -3 -2
-7 -9 12 2 3 4 -3 0
-8 -8 13 2 4 5 -3 1
-8 -6 13 2 4 5 -2 1
-7 -5 14 3 5 6 0 1
-7 -3 14 3 5 6 1 2
-6 0 15 4 6 7 2 2
-5 2 16 5 7 8 3 3
-5 2 16 5 7 8 3 3
-4 3 17 5 7 9 3 3
-4 3 18 5 7 9 3 3
-3 4 19 5 7 10 3 3
-2 5 20 5 7 11 3 4
-2 6 20 5 7 11 3 4
0 7 20 5 7 11 3 4
1 9 19 5 8 11 3 4
2 10 19 5 8 11 3 4
3 12 18 4 9 11 4 5
3 12 16 4 9 11 4 5
3 13 14 3 8 11 4 5
3 13 12 2 8 11 4 6
3 14 9 1 7 11 4 6
4 15 7 0 6 11 5 7
4 15 5 -3 4 9 5 6
4 15 4 -5 2 7 4 5
5 15 2 -7 0 5 3 4
5 15 0 -10 -4 3 2 3
6 14 -3 -12 -6 1 1 2
6 14 -3 -12 -6 1 1 2
6 14 -3 -13 -6 1 1 3
6 13 -3 -14 -6 1 1 4
6 13 -3 -15 -6 1 1 5
7 12 -4 -16 -7 2 1 6
7 12 -3 -15 -7 2 1 6
7 11 -2 -13 -6 2 1 6
8 10 0 -12 -6 2 2 6
8 9 1 -10 -5 2 2 6
9 8 2 -8 -4 2 3 5
8 6 2 -8 -4 2 3 4
7 4 2 -8 -4 2 2 2
5 2 2 -8 -4 1 1 1
4 0 2 -8 -4 1 0 -2
2 -3 2 -9 -5 0 -2 -4
1 -5 2 -10 -6 -3 -4 -5
0 -7 2 -11 -8 -5 -6 -7
-2 -9 2 -12 -10 -7 -8 -8
-3 -11 2 -13 -12 -9 -10 -10
-5 -13 2 -15 -14 -11 -12 -12
-5 -13 2 -15 -14 -11 -12 -12
-5 -13 1 -16 -14 -12 -13 -12
-5 -14 0 -16 -15 -13 -13 -13
-5 -14 -2 -17 -15 -14 -14 -13
-6 -15 -3 -18 -16 -15 -15 -14
-6 -15 -3 -18 -16 -15 -15 -14
-6 -16 -3 -17 -16 -15 -15 -14
-6 -16 -3 -17 -16 -15 -16 -14
-6 -17 -3 -16 -16 -15 -16 -14
-6 -18 -3 -15 -16 -16 -17 -14
-6 -18 -3 -15 -16 -16 -17 -14
-6 -18 -3 -15 -16 -16 -17 -15
-6 -19 -2 -15 -16 -16 -17 -15
-6 -19 -2 -15 -16 -16 -17 -16
-7 -20 0 -16 -17 -17 -17 -17
-7 -20 0 -16 -17 -17 -17 -17
-7 -20 0 -16 -17 -17 -17 -17
-7 -20 0 -16 -17 -17 -17 -17
-7 -20 0 -16 -17 -17 -17 -17
-7 -20 1 -15 -18 -16 -18 -18
-7 -20 1 -15 -18 -16 -18 -18
-7 -20 1 -15 -18 -16 -18 -18
-7 -20 1 -14 -18 -16 -18 -18
-7 -20 1 -14 -18 -16 -18 -18
-6 -19 2 -13 -17 -17 -19 -18
-6 -19 2 -13 -17 -17 -19 -18
-6 -19 2 -13 -17 -17 -19 -18
-6 -20 2 -13 -17 -18 -19 -18
-6 -20 2 -13 -17 -18 -19 -18
-7 -21 2 -12 -17 -19 -20 -19
-5 -21 7 1 -9 -14 -17 -18
-3 -20 12 12 1 -8 -13 -17
1 -20 17 23 9 -3 -9 -16
3 -19 22 34 17 4 -6 -15
6 -18 27 47 26 10 0 -13
18 -7 29 60 49 32 20 1
29 5 31 74 70 54 40 15
42 15 33 88 93 75 62 28
53 26 35 102 115 98 82 43
64 37 37 114 136 119 103 57
77 62 24 95 143 142 130 82
91 87 11 74 150 164 156 107
103 111 -2 55 156 186 182 133
116 135 -15 35 163 209 209 158
129 158 -28 13 169 229 232 182
115 158 -46 -31 129 202 215 179
102 158 -63 -76 90 176 196 176
89 157 -81 -121 51 149 179 173
75 157 -99 -166 11 122 160 170
61 155 -116 -208 -28 95 141 165
34 133 -113 -223 -63 56 102 135
8 109 -109 -237 -98 16 62 104
-19 87 -105 -252 -133 -23 23 73
-46 63 -102 -266 -168 -63 -17 43
-71 42 -98 -278 -200 -100 -54 13
-68 30 -97 -258 -190 -101 -59 4
-65 20 -95 -236 -181 -103 -63 -7
-62 10 -93 -215 -171 -104 -68 -16
-59 -2 -91 -194 -161 -106 -73 -26
-56 -12 -89 -173 -150 -108 -78 -35
-50 -13 -75 -150 -133 -96 -70 -33
-44 -14 -62 -127 -114 -83 -63 -31
-37 -15 -49 -103 -97 -71 -55 -29
-31 -16 -36 -80 -78 -59 -48 -27
-25 -17 -23 -58 -61 -47 -39 -25
-22 -17 -19 -50 -54 -43 -37 -25
-19 -17 -15 -41 -48 -39 -34 -24
-15 -17 -11 -34 -40 -35 -32 -23
-12 -17 -7 -26 -33 -31 -29 -22
-8 -18 -3 -18 -26 -27 -26 -21
-8 -18 -2 -15 -25 -27 -26 -21
-8 -19 0 -12 -23 -26 -26 -21
-8 -20 1 -9 -21 -25 -25 -21
-8 -21 2 -6 -19 -24 -25 -21
-9 -22 4 -3 -17 -23 -24 -20
-9 -22 4 -2 -17 -23 -23 -20
-8 -22 4 0 -16 -22 -22 -20
-8 -22 5 1 -15 -22 -21 -20
-7 -22 5 2 -14 -21 -20 -20
-6 -23 6 3 -13 -20 -19 -20
-6 -23 6 4 -13 -20 -19 -20
-6 -23 6 5 -12 -19 -18 -19
-5 -22 6 6 -11 -18 -17 -19
-5 -22 6 7 -10 -17 -16 -18
-4 -21 7 9 -9 -16 -15 -17
-4 -21 7 9 -9 -16 -15 -17
-4 -21 7 9 -8 -16 -15 -17
-4 -21 8 9 -8 -16 -15 -17
-4 -21 8 9 -7 -16 -15 -17
-3 -22 9 10 -6 -17 -16 -17
-3 -22 9 10 -6 -17 -16 -17
-3 -22 9 11 -6 -17 -16 -17
-2 -22 9 11 -6 -17 -16 -17
-2 -22 9 12 -6 -17 -16 -17
0 -21 9 13 -7 -16 -15 -16
0 -21 9 14 -6 -15 -15 -16
1 -20 9 15 -5 -14 -14 -16
1 -19 10 16 -3 -13 -13 -16
2 -18 10 17 -2 -12 -12 -16
3 -17 11 19 1 -11 -11 -15
3 -17 11 19 1 -11 -11 -15
3 -17 11 19 1 -11 -11 -15
3 -17 11 20 1 -11 -11 -15
3 -17 11 20 1 -11 -11 -15
2 -18 10 21 1 -10 -11 -14
2 -18 10 21 1 -10 -11 -14
3 -17 10 21 1 -10 -11 -14
3 -16 10 22 1 -10 -11 -15
4 -15 10 22 1 -10 -11 -15
5 -14 11 23 2 -11 -11 -16
5 -14 11 24 2 -11 -11 -16
5 -15 11 25 3 -11 -11 -16
5 -15 12 26 4 -10 -11 -16
5 -16 12 27 5 -10 -11 -16
6 -17 13 28 6 -9 -10 -15
6 -17 13 29 6 -9 -10 -15
7 -16 12 30 7 -9 -9 -15
8 -16 12 32 8 -8 -9 -15
9 -15 11 33 9 -8 -8 -15
10 -14 10 35 10 -7 -7 -14
10 -14 10 36 10 -7 -7 -14
10 -13 11 38 11 -7 -7 -14
9 -12 11 39 12 -6 -6 -14
9 -11 12 42 13 -6 -6 -14
8 -10 13 44 14 -5 -5 -13
8 -10 13 45 15 -5 -5 -13
8 -10 13 46 16 -5 -5 -12
9 -10 13 47 17 -5 -5 -12
9 -10 13 48 18 -5 -5 -11
10 -9 14 50 19 -5 -5 -10
10 -8 14 51 19 -5 -5 -10
10 -7 14 52 19 -5 -5 -10
11 -7 14 52 19 -5 -5 -10
11 -6 14 53 19 -5 -5 -10
11 -5 14 54 19 -5 -5 -10
12 -4 14 55 18 -5 -5 -10
12 -3 14 55 18 -5 -5 -10
12 -3 14 55 18 -5 -5 -10
12 -2 14 55 18 -5 -5 -10
12 -2 14 55 18 -5 -5 -10
13 0 14 56 19 -5 -5 -9
12 0 14 56 19 -5 -5 -9
12 0 15 56 19 -5 -5 -9
11 0 15 56 19 -5 -5 -9
11 0 15 56 19 -5 -5 -9
10 1 16 55 19 -5 -5 -8
10 2 16 55 19 -5 -5 -8
10 2 16 55 18 -5 -5 -8
10 3 16 55 18 -5 -5 -8
10 3 16 55 18 -5 -5 -8
10 4 17 53 16 -6 -5 -8
10 4 16 52 15 -6 -5 -8
10 5 16 50 13 -6 -5 -7
10 5 15 49 12 -6 -5 -7
10 5 15 48 11 -6 -5 -7
9 6 14 47 10 -7 -4 -6
9 6 14 46 10 -6 -3 -6
9 6 14 45 11 -6 -3 -5
9 6 14 44 11 -5 -2 -5
9 6 14 43 11 -5 -2 -5
8 7 15 42 12 -4 0 -4
8 7 15 40 12 -4 0 -4
9 7 14 39 12 -4 0 -4
9 7 14 38 12 -4 0 -4
9 7 14 37 12 -4 0 -4
10 7 13 35 13 -3 1 -3
10 7 14 34 13 -3 2 -2
9 6 14 32 13 -2 3 0
9 6 15 31 13 -2 4 1
9 6 15 30 13 -2 5 1
8 5 16 28 13 0 6 2
7 5 15 26 12 0 5 2
7 4 14 24 11 0 4 1
6 4 13 22 10 0 3 1
6 4 13 20 9 0 3 1
5 3 12 18 8 0 2 0
4 2 12 16 7 -2 2 -2
4 1 12 15 6 -2 1 -3
3 0 12 13 5 -3 1 -4
3 0 12 12 5 -3 1 -5
2 -2 12 11 4 -4 0 -6
1 -3 12 10 3 -5 -2 -7
0 -4 12 9 2 -6 -3 -7
-2 -5 12 8 1 -7 -4 -8
-2 -5 12 8 1 -7 -4 -8
-3 -6 12 7 0 -8 -5 -9
-3 -6 12 7 0 -8 -5 -9
-3 -6 12 7 0 -8 -5 -9
-3 -6 12 7 0 -8 -5 -9
-3 -6 12 7 0 -8 -5 -9
-4 -6 12 6 0 -8 -5 -8
-4 -6 12 6 0 -9 -5 -8
-5 -6 12 6 -2 -9 -5 -8
-5 -6 12 6 -2 -10 -5 -8
-5 -6 12 6 -2 -10 -5 -8
-6 -7 12 5 -3 -11 -5 -7
-6 -7 12 5 -3 -10 -5 -7
-6 -8 12 5 -3 -10 -5 -7
-6 -8 12 5 -3 -9 -5 -7
-6 -8 12 5 -3 -9 -5 -7
-6 -9 13 5 -2 -8 -5 -7
-6 -9 13 5 -2 -8 -5 -7
-6 -9 13 5 -2 -8 -6 -8
-6 -9 13 5 -2 -8 -6 -8
-6 -9 13 5 -2 -8 -6 -8
-5 -9 12 6 -3 -9 -7 -9
-5 -9 12 6 -3 -8 -6 -9
-5 -9 12 6 -3 -7 -6 -9
-5 -9 12 6 -3 -6 -5 -9
-5 -9 12 6 -3 -6 -5 -9
-4 -9 13 7 -2 -5 -4 -8
-4 -9 13 6 -2 -6 -4 -8
-4 -9 12 6 -2 -6 -4 -7
-4 -9 12 5 -2 -7 -4 -7
-4 -9 12 5 -2 -7 -4 -7
-5 -8 11 4 -3 -8 -4 -6
-4 -8 11 4 -3 -8 -4 -6
-4 -8 11 4 -3 -8 -5 -7
-3 -8 11 4 -3 -8 -5 -7
-3 -8 11 4 -3 -8 -5 -7
-2 -9 11 5 -3 -8 -6 -8
-3 -9 11 5 -3 -7 -5 -8
-3 -10 11 5 -3 -7 -5 -8
-4 -10 11 5 -3 -6 -4 -8
-4 -10 11 5 -3 -6 -4 -8
-5 -10 11 4 -3 -5 -3 -8
-5 -9 11 4 -2 -5 -3 -8
-5 -8 12 4 0 -5 -3 -8
-5 -7 12 4 1 -5 -3 -8
-5 -6 12 4 1 -5 -3 -8
-4 -4 13 5 2 -4 -4 -6
-4 -3 14 6 3 -3 -3 -5
-4 0 15 6 3 -2 -3 -3
-4 1 16 7 4 0 -2 -2
-4 2 16 7 4 1 -2 0
-4 3 17 8 5 2 0 1
-3 4 18 8 5 2 1 1
-2 4 18 8 5 2 1 1
0 5 19 8 5 2 2 1
0 5 19 8 5 2 2 1
1 7 20 8 6 3 3 2
1 9 19 7 6 4 4 3
1 11 18 7 6 5 5 4
1 13 17 6 6 6 6 5
1 14 17 6 6 6 7 6
1 15 14 4 6 7 8 7
2 15 12 2 5 6 7 7
3 15 10 1 4 5 7 7
4 15 8 -2 3 4 6 7
4 15 6 -3 3 4 6 7
5 15 5 -4 1 3 5 7
5 14 4 -5 0 2 4 7
4 13 3 -6 -3 1 3 7
4 12 2 -7 -4 0 2 7
4 11 1 -8 -5 0 2 7
3 10 0 -9 -6 -2 1 6
3 11 -2 -10 -7 -3 1 6
4 12 -2 -11 -8 -3 1 6
4 13 -3 -12 -9 -4 1 6
4 13 -3 -12 -9 -4 1 6
5 13 -4 -12 -10 -5 0 6
5 11 -3 -11 -9 -5 0 6
5 9 -2 -9 -8 -4 0 5
5 7 0 -8 -7 -4 0 5
5 6 1 -7 -6 -4 0 5
5 4 2 -6 -5 -3 1 4
4 2 2 -6 -5 -3 1 3
2 1 2 -6 -6 -3 0 2
1 -2 2 -6 -6 -3 0 1
0 -3 2 -6 -6 -3 0 0
-2 -5 2 -8 -8 -5 -3 -3
-3 -7 1 -9 -10 -7 -6 -5
-4 -9 0 -10 -11 -9 -8 -7
-5 -11 -2 -11 -13 -11 -10 -8
-6 -13 -3 -12 -14 -13 -12 -10
-7 -14 -4 -13 -15 -14 -13 -11
-7 -14 -4 -13 -15 -14 -13 -11
-7 -15 -4 -14 -15 -15 -14 -12
-7 -15 -4 -14 -15 -15 -14 -12
-7 -15 -4 -14 -15 -15 -14 -12
-7 -16 -3 -15 -16 -16 -15 -13
-7 -17 -3 -15 -16 -16 -15 -13
-7 -17 -3 -15 -17 -17 -16 -13
-7 -18 -3 -15 -17 -17 -16 -13
-7 -18 -3 -15 -17 -17 -16 -13
-7 -19 -3 -16 -18 -18 -17 -14
-8 -19 -3 -16 -18 -18 -17 -14
-8 -19 -3 -15 -18 -18 -17 -14
-9 -19 -3 -15 -18 -18 -17 -14
-9 -19 -3 -15 -18 -18 -17 -14
-10 -20 -3 -14 -17 -17 -18 -15
-10 -20 -3 -14 -17 -17 -18 -16
-10 -20 -3 -14 -17 -17 -19 -16
-10 -20 -3 -14 -17 -17 -19 -17
-10 -20 -3 -14 -17 -17 -19 -17
-9 -20 -4 -15 -17 -18 -20 -18
-9 -20 -4 -15 -17 -18 -20 -18
-9 -20 -3 -15 -17 -18 -20 -18
-9 -20 -3 -15 -17 -18 -20 -18
-9 -20 -3 -15 -17 -18 -20 -18
-9 -20 -2 -13 -18 -19 -20 -17
-8 -21 -2 -12 -17 -19 -20 -17
-7 -21 -2 -10 -17 -19 -20 -17
-6 -22 -2 -9 -16 -19 -20 -17
-6 -22 -2 -8 -16 -19 -20 -17
-3 -22 1 4 -6 -12 -18 -16
0 -21 5 17 6 -4 -14 -14
2 -19 8 30 17 5 -9 -11
5 -18 12 43 28 13 -5 -8
7 -17 16 56 39 21 0 -6
18 -4 19 67 62 47 24 10
29 11 22 78 87 74 52 27
42 25 24 90 110 102 79 46
54 39 27 102 135 130 107 63
66 54 30 113 159 157 135 80
76 77 17 92 163 177 159 104
86 102 0 64 164 196 184 129
95 126 -19 37 165 215 207 153
105 150 -36 10 167 233 232 178
114 175 -54 -18 168 253 257 202
101 175 -68 -59 130 226 238 196
82 170 -82 -101 84 190 211 183
64 164 -97 -143 36 154 183 171
45 159 -111 -186 -10 118 155 157
26 154 -124 -228 -57 82 129 144
6 132 -124 -241 -90 44 90 116
-16 106 -120 -248 -119 4 49 85
-37 79 -116 -257 -150 -36 8 54
-58 54 -112 -264 -181 -76 -33 23
-79 28 -108 -271 -212 -115 -74 -9
-78 18 -103 -255 -204 -119 -81 -18
-72 11 -98 -231 -190 -115 -81 -23
-66 4 -93 -208 -176 -111 -81 -29
-60 -4 -88 -186 -160 -106 -81 -34
-54 -11 -82 -162 -146 -102 -81 -40
-49 -13 -72 -140 -129 -92 -74 -39
-43 -13 -61 -118 -110 -80 -66 -36
-36 -14 -50 -96 -92 -68 -58 -34
-30 -14 -38 -74 -73 -57 -50 -31
-24 -14 -27 -52 -55 -45 -41 -28
-22 -15 -22 -43 -48 -39 -37 -26
-19 -15 -19 -36 -41 -34 -34 -25
-17 -15 -15 -29 -35 -30 -31 -24
-14 -15 -11 -23 -29 -26 -28 -22
-12 -15 -7 -17 -23 -21 -25 -21
-11 -16 -6 -13 -21 -20 -24 -20
-11 -17 -5 -10 -19 -19 -24 -20
-10 -17 -4 -7 -17 -18 -24 -20
-10 -18 -3 -4 -16 -17 -24 -20
-10 -18 -3 0 -14 -17 -24 -20
-9 -19 -2 1 -13 -16 -22 -20
-8 -19 -2 1 -12 -15 -21 -20
-8 -18 0 2 -11 -14 -20 -19
-7 -18 0 2 -10 -13 -18 -19
-7 -18 0 2 -9 -12 -17 -19
-6 -17 1 3 -8 -11 -16 -18
-6 -17 1 5 -8 -11 -16 -18
-5 -17 1 6 -7 -11 -16 -18
-5 -17 1 7 -7 -11 -16 -18
-5 -17 1 8 -7 -11 -16 -18
-4 -17 0 9 -6 -10 -16 -19
-4 -17 1 9 -5 -10 -16 -19
-4 -16 1 10 -4 -10 -16 -19
-4 -16 2 10 -3 -10 -16 -19
-4 -16 2 10 -3 -10 -16 -19
-3 -15 3 11 -2 -9 -16 -18
-3 -15 4 13 0 -8 -15 -18
-3 -14 4 14 1 -7 -15 -18
-3 -14 5 15 2 -6 -14 -18
-3 -14 5 16 3 -6 -14 -18
-2 -13 6 17 4 -5 -13 -19
0 -13 5 17 4 -4 -13 -18
1 -13 4 16 4 -3 -13 -17
2 -13 3 16 4 -2 -13 -16
2 -13 3 16 4 -2 -13 -16
3 -14 2 16 5 0 -12 -15
3 -13 3 17 6 0 -12 -15
3 -12 3 18 6 0 -12 -15
3 -11 4 20 7 0 -12 -15
3 -11 4 21 7 0 -12 -15
3 -10 5 22 8 1 -13 -16
3 -10 5 22 9 2 -12 -16
3 -9 5 22 10 2 -12 -16
3 -9 5 22 11 3 -11 -16
3 -9 5 22 11 3 -11 -16
4 -8 4 24 12 4 -10 -15
4 -8 4 25 13 4 -10 -15
4 -8 4 27 13 4 -10 -15
4 -8 4 29 14 4 -10 -15
4 -8 4 30 14 4 -10 -15
5 -8 3 31 15 3 -11 -15
6 -7 3 33 16 4 -10 -14
6 -7 4 34 16 4 -9 -14
7 -6 4 35 17 5 -8 -13
7 -6 4 36 17 5 -8 -13
8 -5 5 38 18 6 -7 -12
8 -5 5 40 19 6 -7 -12
8 -6 5 43 20 6 -7 -11
8 -6 5 44 21 6 -7 -11
8 -6 5 46 22 6 -7 -11
8 -7 6 48 23 6 -8 -10
9 -6 7 49 24 7 -7 -10
9 -5 7 50 25 7 -6 -10
10 -4 8 52 26 8 -5 -10
10 -4 8 53 27 8 -5 -10
11 -3 9 54 28 9 -4 -10
11 -3 9 56 29 9 -4 -10
12 -3 9 57 30 10 -4 -10
12 -3 9 58 31 10 -4 -10
12 -3 9 59 31 10 -4 -10
13 -4 9 60 32 11 -5 -9
13 -2 9 60 32 11 -5 -8
13 0 9 61 32 11 -5 -7
13 1 9 61 32 11 -5 -6
13 2 9 61 32 11 -5 -5
13 3 8 62 31 11 -6 -4
13 3 9 62 30 10 -7 -5
13 3 9 61 29 9 -7 -6
13 3 10 61 28 8 -8 -7
13 3 10 61 28 8 -8 -7
12 3 11 59 27 7 -9 -8
12 4 11 58 26 7 -9 -8
12 5 10 56 25 7 -8 -8
12 6 10 54 24 7 -8 -8
12 6 10 53 24 7 -8 -8
11 7 9 52 23 6 -7 -7
10 7 9 52 22 5 -8 -7
10 7 9 52 21 4 -8 -6
9 7 9 52 20 3 -9 -6
9 7 9 52 20 3 -9 -6
8 7 8 50 19 2 -10 -5
8 7 8 48 19 3 -10 -5
8 7 8 46 19 3 -9 -4
8 7 8 44 19 4 -9 -4
8 7 8 42 19 4 -9 -4
8 7 8 40 19 5 -7 -3
8 7 9 39 19 6 -6 -2
8 8 10 39 19 7 -4 -2
8 8 11 38 19 8 -2 0
8 8 11 38 19 9 0 0
7 9 12 36 19 10 1 1
7 9 12 33 18 10 1 1
7 9 12 31 17 10 1 2
7 9 12 28 16 10 1 2
7 9 12 26 16 10 1 2
6 8 12 24 15 10 2 3
6 8 12 23 15 10 2 2
5 8 11 22 14 9 1 1
5 8 11 20 14 9 1 1
5 8 11 19 14 9 1 0
4 8 10 17 12 8 0 -2
3 7 10 16 11 8 -2 -2
3 7 9 14 10 7 -2 -2
2 6 9 13 8 7 -3 -2
2 6 9 11 7 7 -3 -2
1 5 8 10 6 6 -4 -2
0 3 8 10 6 5 -4 -3
0 2 8 9 5 5 -4 -4
-2 1 8 9 5 4 -4 -5
-2 0 8 9 5 4 -4 -6
-3 -2 9 8 4 3 -5 -7
-3 -2 9 8 4 2 -5 -7
-4 -2 9 7 4 2 -5 -7
-4 -2 9 7 4 1 -5 -7
-4 -2 9 7 4 1 -5 -7
-5 -2 9 6 4 0 -6 -8
-5 -2 9 6 3 0 -6 -8
-5 -2 9 6 3 0 -6 -8
-5 -2 9 6 2 0 -6 -8
-5 -2 9 6 2 0 -6 -8
-4 -3 8 6 1 -2 -7 -7
-4 -3 8 6 1 -2 -7 -7
-4 -3 8 5 1 -2 -7 -7
-4 -3 8 5 1 -2 -7 -7
-4 -3 8 5 1 -2 -7 -7
-5 -3 7 4 1 -3 -7 -7
-5 -3 8 4 1 -3 -7 -7
-4 -3 8 4 1 -3 -7 -7
-4 -3 9 4 1 -3 -7 -7
-4 -3 9 4 1 -3 -7 -7
-3 -2 10 5 1 -3 -7 -7
-3 -2 10 5 2 -2 -6 -7
-4 -3 10 5 2 -2 -5 -7
-4 -3 10 5 3 0 -5 -7
-4 -3 10 5 3 0 -4 -7
-5 -4 10 5 4 1 -3 -6
-5 -4 10 5 4 1 -3 -6
-4 -4 9 5 4 1 -3 -6
-4 -4 9 5 4 1 -3 -6
-4 -4 9 5 4 1 -3 -6
-3 -3 8 5 3 2 -3 -5
-3 -3 8 5 3 2 -2 -4
-4 -4 8 5 3 2 -2 -4
-4 -4 8 5 3 2 0 -3
-4 -4 8 5 3 2 0 -3
-5 -5 9 4 3 2 1 -2
-5 -5 9 4 3 2 0 -2
-4 -5 9 5 3 2 -2 -2
-4 -5 9 5 3 2 -3 -2
-4 -5 9 5 3 2 -4 -2
-3 -5 8 6 3 1 -5 -3
-3 -3 10 6 4 3 -3 -2
-3 0 11 6 5 4 -2 0
-3 3 12 6 6 5 1 0
-3 5 13 6 7 6 2 1
-3 6 14 7 8 7 3 2
-3 8 15 7 8 7 3 2
-3 9 15 7 8 7 3 2
-3 10 16 7 8 7 3 2
-3 11 16 7 8 7 3 2
-4 12 17 8 9 7 4 3
-4 13 17 8 9 7 4 3
-4 14 17 8 9 7 4 4
-4 14 17 8 9 7 4 4
-4 15 17 8 9 7 4 4
-3 16 18 8 9 8 5 5
-3 18 18 6 9 8 5 6
-3 19 17 5 9 8 5 6
-3 21 17 4 9 8 5 7
-3 22 17 3 9 8 5 7
-2 23 14 1 8 9 6 8
0 23 10 -2 6 8 6 8
0 23 7 -4 5 7 5 8
1 23 3 -7 3 7 5 8
1 23 0 -9 2 6 5 8
2 22 -3 -10 1 5 4 7
2 22 -3 -10 0 3 3 7
2 21 -2 -10 -2 2 2 6
2 21 -2 -10 -2 1 1 6
2 21 -2 -10 -3 0 0 6
2 20 0 -11 -4 -2 -2 5
2 19 0 -11 -4 -2 -2 5
2 19 -2 -11 -5 -2 -2 5
2 18 -2 -11 -5 -2 -2 5
2 18 -2 -11 -5 -2 -2 5
2 16 -3 -12 -6 0 -2 5
2 13 -3 -11 -6 0 -2 5
2 11 -2 -10 -5 0 0 4
2 9 -2 -9 -5 0 0 4
2 6 -2 -8 -5 0 0 4
2 4 0 -7 -4 1 1 3
1 2 1 -8 -5 -2 -2 1
0 1 1 -8 -5 -3 -3 0
0 -2 2 -9 -6 -4 -4 -2
-2 -4 2 -9 -6 -5 -5 -3
-3 -6 3 -10 -8 -7 -7 -4
-5 -8 2 -11 -10 -9 -9 -6
-6 -10 1 -12 -12 -11 -11 -7
-7 -12 0 -13 -14 -14 -13 -9
-8 -14 -2 -14 -16 -16 -15 -10
-9 -15 -3 -15 -17 -17 -16 -11
-9 -15 -3 -15 -17 -17 -16 -11
-8 -15 -3 -15 -17 -17 -16 -12
-8 -15 -3 -15 -17 -17 -16 -12
-8 -15 -3 -15 -17 -17 -16 -12
-7 -16 -4 -16 -17 -17 -16 -13
-8 -16 -4 -16 -17 -17 -16 -13
-9 -17 -4 -16 -17 -17 -16 -13
-9 -17 -4 -16 -17 -17 -16 -13
-10 -17 -4 -16 -17 -17 -16 -13
-11 -18 -5 -16 -17 -18 -16 -13
-11 -19 -5 -16 -17 -18 -16 -13
-11 -20 -4 -16 -17 -17 -16 -14
-11 -20 -3 -16 -17 -17 -16 -14
-11 -21 -3 -16 -17 -17 -16 -14
-10 -22 -2 -15 -16 -16 -15 -15
-10 -22 -2 -15 -16 -16 -16 -16
-10 -22 -2 -15 -16 -17 -17 -17
-10 -22 -2 -15 -16 -18 -17 -18
-10 -22 -2 -15 -16 -18 -18 -19
-11 -22 -2 -14 -17 -19 -19 -20
-11 -22 -2 -14 -17 -19 -19 -20
-11 -22 -2 -13 -17 -19 -18 -20
-11 -22 -2 -12 -17 -19 -17 -20
-11 -22 -2 -12 -17 -19 -17 -20
-9 -21 0 -8 -14 -18 -16 -19
-8 -22 2 -3 -11 -18 -16 -19
-6 -23 4 4 -8 -18 -16 -20
-5 -24 6 9 -4 -18 -16 -20
-3 -25 8 15 0 -18 -16 -20
2 -23 13 27 14 -6 -7 -16
7 -17 20 44 32 13 8 -7
12 -12 26 61 52 30 23 2
17 -6 33 77 71 49 38 11
23 0 40 95 91 67 53 19
32 17 39 100 111 95 79 38
45 39 31 97 133 128 113 62
57 62 24 94 153 160 146 87
69 85 17 91 175 193 179 111
81 107 9 89 196 226 213 136
87 125 -9 59 188 237 229 152
87 138 -31 13 162 236 235 165
87 151 -54 -32 136 234 241 179
87 164 -77 -77 110 232 248 191
87 179 -100 -122 84 230 255 204
70 170 -111 -157 43 195 227 190
45 146 -114 -185 -8 140 178 158
18 122 -117 -213 -57 85 129 127
-8 99 -121 -241 -107 29 79 95
-34 75 -124 -269 -156 -26 30 63
-48 57 -126 -273 -179 -59 -3 38
-53 40 -122 -261 -185 -76 -24 19
-59 25 -119 -248 -190 -95 -46 0
-64 10 -116 -236 -196 -112 -67 -20
-69 -7 -113 -224 -201 -131 -89 -39
-68 -13 -104 -204 -191 -131 -94 -48
-61 -14 -92 -180 -170 -118 -86 -46
-55 -16 -79 -156 -148 -106 -78 -45
-48 -17 -66 -132 -127 -94 -70 -43
-40 -18 -54 -108 -105 -81 -62 -41
-35 -19 -45 -90 -89 -71 -55 -39
-31 -20 -36 -75 -75 -62 -49 -37
-27 -21 -28 -60 -63 -53 -41 -35
-22 -21 -20 -46 -50 -45 -35 -33
-18 -22 -13 -31 -36 -35 -28 -30
-16 -23 -8 -23 -30 -30 -25 -29
-15 -23 -6 -19 -27 -29 -23 -29
-13 -22 -4 -16 -24 -27 -22 -28
-12 -22 -2 -12 -21 -25 -20 -27
-11 -22 2 -8 -18 -23 -19 -27
-10 -21 3 -5 -15 -22 -18 -26
-10 -22 4 -3 -14 -21 -18 -26
-9 -23 5 0 -12 -20 -18 -26
-8 -23 6 2 -10 -19 -18 -26
-8 -24 7 4 -8 -18 -18 -26
-7 -25 8 5 -7 -17 -17 -27
-7 -24 8 5 -7 -17 -16 -27
-7 -23 8 6 -6 -16 -15 -26
-7 -23 8 7 -6 -15 -15 -25
-7 -22 8 7 -6 -15 -14 -25
-7 -21 8 8 -5 -14 -13 -24
-6 -21 9 9 -4 -14 -13 -24
-5 -21 10 11 -3 -14 -13 -24
-5 -21 10 12 -2 -14 -13 -24
-4 -21 11 13 0 -14 -13 -24
-3 -21 12 14 1 -13 -13 -24
-3 -20 12 14 1 -13 -13 -24
-3 -19 11 14 1 -13 -12 -23
-3 -19 11 14 1 -13 -11 -23
-3 -18 11 14 1 -13 -11 -23
-3 -17 10 15 2 -12 -10 -22
-3 -17 10 16 3 -12 -10 -22
-3 -18 11 17 4 -11 -10 -22
-3 -18 11 17 4 -11 -10 -22
-3 -18 11 18 5 -11 -10 -22
-2 -19 12 19 6 -10 -10 -22
-2 -19 12 19 6 -10 -10 -22
-2 -19 12 20 6 -9 -9 -22
-2 -19 12 21 6 -8 -9 -22
-2 -19 12 21 6 -8 -9 -22
0 -18 11 22 7 -7 -8 -21
0 -18 11 23 8 -6 -8 -21
0 -18 11 25 10 -5 -7 -20
0 -18 11 26 11 -4 -7 -20
0 -18 11 27 12 -3 -7 -20
1 -17 12 28 13 -2 -6 -19
1 -17 12 28 13 -2 -6 -19
1 -16 13 29 14 -2 -5 -19
1 -15 13 30 14 -2 -5 -19
1 -15 13 30 14 -2 -5 -19
1 -14 14 32 15 -2 -4 -19
1 -14 14 33 16 -2 -4 -19
2 -14 14 35 17 -2 -3 -19
3 -14 14 37 18 -2 -3 -19
3 -14 14 39 19 -2 -3 -19
4 -14 15 40 20 -2 -2 -18
4 -14 15 43 21 -2 -2 -18
5 -14 15 44 22 0 -2 -17
5 -14 15 45 23 1 -2 -17
5 -14 15 47 24 1 -2 -17
6 -13 16 49 25 2 0 -16
6 -13 16 50 26 2 0 -16
7 -12 17 52 27 2 0 -16
7 -11 18 54 28 2 0 -16
7 -11 18 56 29 2 0 -16
8 -10 19 57 30 3 -2 -17
8 -10 19 58 30 3 -2 -17
8 -9 19 60 30 3 -2 -17
8 -8 19 61 30 3 -2 -17
8 -8 19 62 30 3 -2 -17
8 -7 19 63 31 3 0 -17
8 -7 19 64 31 3 0 -17
8 -7 19 65 32 3 0 -16
8 -7 19 66 33 3 0 -16
8 -7 19 67 33 3 0 -16
9 -6 20 68 34 4 1 -15
9 -5 20 68 33 4 1 -15
10 -4 20 68 32 4 1 -14
11 -3 20 68 32 4 1 -13
11 -2 20 68 31 4 1 -13
12 0 21 67 30 4 0 -12
11 0 21 67 30 4 0 -12
10 0 22 66 30 3 0 -12
9 0 22 66 30 3 0 -12
8 0 22 66 30 3 0 -12
7 -2 23 65 29 2 -2 -11
7 -2 23 63 27 1 -2 -11
7 -2 22 61 25 -2 -3 -11
7 -2 22 60 24 -3 -4 -11
7 -2 22 58 22 -4 -4 -11
7 0 21 57 21 -5 -5 -11
7 0 21 56 21 -5 -5 -11
8 1 20 55 21 -4 -4 -10
8 1 20 54 21 -4 -3 -10
8 1 20 53 21 -4 -3 -10
9 2 19 51 20 -3 -2 -9
9 3 19 49 19 -3 -2 -9
8 4 18 47 18 -2 -2 -8
7 4 17 45 17 -2 -2 -8
7 5 17 43 16 -2 -2 -8
6 6 16 40 15 0 0 -7
6 6 16 38 15 0 0 -7
6 6 17 36 16 1 1 -6
6 6 17 35 16 2 1 -6
6 6 17 33 16 2 1 -6
5 6 18 32 17 3 2 -5
5 5 17 30 16 3 2 -5
5 4 16 28 14 3 3 -5
5 4 16 26 13 3 4 -5
5 3 15 24 12 3 4 -5
4 2 14 23 11 3 5 -4
3 1 14 21 10 3 5 -4
2 0 13 19 9 3 4 -5
2 0 13 18 9 3 4 -5
1 -2 13 16 8 3 4 -5
0 -3 12 15 7 2 3 -6
0 -3 11 13 5 1 2 -7
-2 -4 10 11 3 -2 1 -8
-2 -4 10 10 1 -3 0 -8
-2 -4 9 8 -2 -4 -2 -9
-3 -5 8 7 -3 -5 -3 -10
-3 -5 8 7 -3 -5 -3 -10
-4 -6 9 7 -3 -5 -4 -11
-4 -6 10 7 -3 -5 -4 -11
-4 -6 10 7 -3 -5 -4 -11
-5 -7 11 7 -4 -5 -5 -12
-5 -7 11 6 -4 -5 -5 -12
-6 -7 10 5 -4 -6 -6 -12
-6 -7 9 5 -4 -6 -6 -12
-6 -7 9 4 -4 -6 -6 -12
-7 -7 8 3 -5 -7 -7 -11
-7 -7 8 3 -5 -7 -7 -11
-7 -8 8 3 -5 -8 -7 -12
-7 -8 8 3 -5 -8 -7 -12
-7 -8 8 3 -5 -8 -7 -12
-7 -9 9 4 -5 -9 -8 -13
-7 -9 9 4 -5 -9 -8 -13
-7 -9 9 3 -6 -9 -8 -13
-7 -9 9 3 -6 -9 -8 -13
-7 -9 9 3 -6 -9 -8 -13
-7 -8 8 2 -7 -9 -7 -12
-7 -8 8 2 -7 -9 -7 -12
-7 -8 8 3 -7 -8 -7 -12
-7 -8 8 4 -7 -7 -7 -12
-7 -8 8 4 -7 -7 -7 -12
-7 -9 9 5 -6 -6 -8 -12
-7 -9 9 5 -6 -6 -8 -12
-7 -9 9 5 -6 -6 -8 -12
-7 -9 9 5 -5 -6 -8 -11
-7 -9 9 5 -5 -6 -8 -11
-7 -9 10 4 -4 -6 -7 -10
-6 -9 10 4 -4 -6 -7 -10
-6 -9 10 4 -4 -6 -7 -10
-5 -9 10 4 -4 -6 -7 -10
-4 -9 10 4 -4 -6 -7 -10
-3 -8 10 5 -4 -5 -7 -11
-3 -8 10 5 -4 -5 -7 -11
-4 -8 10 5 -4 -5 -7 -10
-5 -8 10 4 -4 -5 -6 -9
-5 -8 10 4 -4 -5 -6 -9
-6 -8 10 3 -3 -4 -5 -8
-6 -8 10 3 -3 -4 -5 -8
-6 -8 10 3 -3 -4 -5 -8
-6 -8 11 3 -3 -3 -4 -7
-6 -8 11 3 -3 -3 -4 -7
-6 -8 12 4 -2 -2 -3 -6
-6 -6 13 4 0 0 -2 -5
-6 -4 13 4 0 1 0 -4
-6 -2 14 4 1 2 1 -3
-6 1 15 4 2 3 2 -2
-6 3 16 5 3 4 3 0
-6 3 16 5 4 4 3 0
-6 3 17 5 4 4 3 0
-6 3 18 6 5 4 3 0
-6 3 18 6 6 4 3 0
-5 3 19 7 7 4 3 0
-5 4 19 7 7 4 3 1
-5 4 19 7 7 4 3 1
-4 5 19 6 7 4 3 2
-4 6 19 6 7 4 3 3
-3 7 19 5 6 5 4 4
-3 9 18 4 6 5 4 4
-2 10 17 4 6 6 4 4
0 12 15 3 6 7 5 5
0 14 14 2 6 7 5 5
1 15 12 0 7 8 6 6
1 15 9 -3 5 6 5 6
1 14 7 -5 3 5 4 6
0 13 4 -8 1 3 3 6
0 13 1 -10 -2 1 2 6
-2 12 -2 -12 -4 0 1 5
0 12 -2 -12 -4 0 1 5
1 12 -2 -12 -4 0 1 5
3 13 -2 -12 -5 0 1 5
4 13 -2 -12 -5 0 1 5
5 14 0 -13 -6 -2 1 6
5 13 0 -13 -6 -2 1 6
4 12 0 -13 -6 -2 1 6
3 10 -2 -13 -6 -2 2 6
3 9 -2 -13 -6 -2 2 6
2 7 -3 -12 -5 0 3 7
2 5 -2 -11 -5 0 3 6
2 3 0 -11 -4 0 2 6
2 1 1 -10 -3 0 1 5
2 -2 2 -9 -3 0 1 4
1 -4 3 -8 -2 -2 0 3
0 -6 3 -8 -4 -3 -3 1
-2 -8 3 -9 -5 -4 -5 -2
-4 -10 3 -10 -7 -6 -7 -4
-5 -12 3 -10 -9 -7 -9 -6
-6 -14 2 -11 -10 -8 -10 -7
-6 -15 1 -12 -11 -10 -11 -8
-7 -16 1 -12 -12 -11 -12 -9
-8 -18 0 -13 -13 -13 -14 -11
-8 -19 -2 -14 -14 -15 -15 -12
-9 -20 -3 -15 -15 -16 -16 -13
-9 -20 -3 -15 -15 -16 -16 -13
-9 -20 -3 -15 -15 -16 -16 -13
-9 -20 -3 -15 -15 -16 -16 -13
-9 -20 -3 -15 -15 -16 -16 -13
-8 -19 -3 -16 -15 -16 -16 -14
-8 -20 -3 -16 -15 -16 -16 -14
-8 -20 -3 -16 -15 -16 -16 -14
-8 -21 -3 -16 -15 -16 -16 -14
-8 -22 -3 -16 -15 -16 -16 -14
-9 -23 -3 -16 -15 -17 -17 -14
-9 -23 -3 -16 -15 -17 -17 -14
-9 -23 -3 -16 -15 -17 -17 -14
-9 -23 -2 -16 -15 -17 -17 -14
-9 -23 -2 -16 -15 -17 -17 -14
-8 -24 0 -16 -15 -17 -18 -14
-8 -24 0 -16 -15 -17 -18 -14
-9 -24 0 -16 -15 -17 -18 -14
-10 -25 0 -16 -14 -17 -18 -14
-10 -25 0 -16 -14 -17 -18 -14
-11 -26 1 -15 -13 -16 -18 -15
-11 -26 1 -15 -13 -16 -18 -15
-11 -27 1 -14 -13 -16 -18 -15
-11 -28 1 -13 -13 -16 -18 -15
-11 -28 1 -13 -13 -16 -18 -15
-11 -29 2 -10 -11 -15 -18 -14
-9 -29 5 -3 -6 -13 -17 -14
-7 -29 8 4 0 -11 -16 -14
-5 -28 11 10 4 -9 -14 -14
-3 -28 14 17 9 -8 -13 -14
3 -24 18 27 20 3 -5 -11
10 -17 23 45 40 22 12 0
18 -10 28 61 62 42 29 10
25 -3 33 77 82 61 47 20
33 5 38 94 104 80 64 31
44 20 38 102 125 106 88 48
56 44 28 97 145 138 120 73
69 68 19 91 167 170 152 99
82 93 9 85 187 201 185 126
95 117 0 79 209 233 218 151
103 136 -16 57 207 250 237 169
100 144 -39 10 175 240 237 176
98 153 -63 -36 142 231 236 183
95 161 -87 -83 109 222 235 190
93 171 -110 -131 76 214 235 197
79 167 -124 -169 36 186 215 190
52 144 -124 -195 -12 131 165 158
24 121 -126 -221 -61 76 115 127
-5 98 -127 -247 -109 22 66 96
-32 75 -127 -273 -157 -33 17 64
-51 56 -127 -283 -187 -70 -18 38
-53 42 -121 -266 -187 -81 -33 23
-56 26 -117 -248 -188 -93 -48 7
-58 12 -113 -231 -189 -104 -62 -9
-61 -3 -108 -214 -189 -115 -77 -24
-61 -12 -100 -193 -182 -118 -85 -34
-54 -13 -88 -169 -159 -105 -76 -33
-47 -14 -74 -144 -137 -93 -69 -32
-39 -15 -62 -120 -114 -80 -62 -30
-33 -16 -49 -96 -92 -68 -55 -29
-27 -17 -38 -76 -73 -58 -49 -28
-25 -17 -30 -64 -63 -51 -44 -26
-22 -17 -23 -52 -53 -44 -38 -24
-19 -18 -15 -39 -43 -36 -34 -22
-16 -18 -8 -28 -32 -30 -29 -21
-14 -19 -3 -19 -25 -25 -26 -19
-13 -19 -2 -16 -22 -24 -25 -19
-12 -20 0 -13 -20 -22 -25 -19
-11 -21 1 -10 -18 -21 -24 -19
-10 -21 2 -6 -16 -19 -23 -19
-9 -22 3 -4 -14 -18 -22 -19
-9 -22 4 -2 -12 -17 -21 -19
-9 -22 6 1 -10 -16 -21 -19
-8 -22 7 3 -8 -15 -20 -19
-8 -22 9 5 -7 -14 -19 -19
-7 -23 10 7 -5 -13 -18 -18
-7 -23 10 7 -5 -13 -18 -18
-7 -23 10 7 -5 -13 -18 -17
-6 -23 9 7 -5 -13 -17 -16
-6 -23 9 7 -5 -13 -17 -16
-5 -22 8 8 -4 -12 -16 -15
-5 -22 8 9 -4 -12 -16 -15
-5 -22 8 10 -4 -12 -16 -15
-4 -22 9 12 -3 -12 -16 -15
-4 -22 9 13 -3 -12 -16 -15
-3 -21 10 14 -2 -12 -17 -16
-3 -21 10 14 -2 -12 -17 -16
-3 -20 10 14 0 -12 -16 -16
-3 -19 10 14 1 -11 -15 -16
-3 -19 10 14 1 -11 -15 -16
-3 -18 11 15 2 -10 -14 -15
-3 -18 11 16 2 -10 -14 -15
-3 -18 12 17 3 -9 -14 -15
-3 -18 13 19 4 -8 -13 -14
-3 -18 13 20 4 -8 -13 -14
-2 -18 14 21 5 -7 -12 -13
-2 -18 14 22 5 -7 -12 -13
-2 -18 14 22 5 -6 -12 -13
-2 -17 14 23 6 -5 -12 -12
-2 -17 14 24 6 -5 -12 -12
-2 -16 13 25 7 -4 -11 -11
-2 -16 13 26 8 -4 -11 -11
-2 -16 13 27 9 -3 -11 -11
0 -16 14 29 10 -2 -10 -11
0 -16 14 30 11 -2 -10 -11
1 -17 15 31 12 0 -9 -11
1 -17 15 32 13 0 -9 -10
1 -17 15 33 14 1 -9 -10
1 -17 16 35 15 2 -8 -9
1 -17 16 36 16 2 -8 -8
2 -17 17 37 17 3 -7 -7
2 -17 17 38 18 3 -7 -7
2 -17 17 40 19 3 -7 -7
3 -16 18 42 21 3 -7 -7
3 -16 18 44 22 3 -7 -7
4 -15 19 45 23 4 -7 -8
4 -15 19 47 24 4 -7 -8
4 -15 19 49 25 4 -6 -8
5 -15 19 51 26 4 -5 -8
5 -15 19 52 27 4 -5 -8
6 -14 19 54 28 5 -4 -7
6 -13 20 56 28 5 -4 -7
7 -13 20 57 28 5 -4 -7
8 -12 21 59 29 5 -4 -7
8 -11 22 60 29 5 -4 -7
9 -10 23 62 30 6 -3 -7
9 -10 23 64 31 6 -3 -7
9 -10 23 65 31 6 -3 -7
9 -9 23 67 32 6 -3 -6
9 -9 23 68 33 6 -3 -6
9 -8 24 70 34 6 -4 -5
9 -8 24 70 34 6 -4 -5
9 -8 25 71 34 6 -4 -5
9 -7 26 72 35 6 -4 -5
9 -7 26 72 35 6 -4 -5
9 -6 27 73 36 7 -3 -5
9 -5 27 73 35 7 -3 -5
9 -5 27 73 35 7 -3 -5
9 -4 27 73 34 7 -3 -5
9 -3 27 73 33 7 -3 -5
10 -2 28 73 32 7 -3 -4
10 -2 28 73 32 7 -3 -4
9 -2 28 73 31 6 -3 -4
9 -2 28 72 31 6 -3 -4
8 -2 28 72 30 5 -3 -4
7 0 28 71 29 4 -4 -5
7 0 28 70 28 4 -4 -5
7 0 28 69 28 4 -4 -5
7 0 28 68 27 3 -4 -4
7 0 28 66 26 3 -4 -4
6 0 28 65 25 2 -5 -3
6 0 28 64 25 2 -5 -3
6 0 28 62 24 2 -5 -3
6 1 28 61 24 2 -5 -3
6 1 28 59 23 2 -5 -3
7 2 27 58 22 1 -5 -2
7 2 27 56 22 2 -4 -2
7 2 27 55 22 2 -3 0
6 3 26 53 22 3 -2 0
6 3 26 52 22 4 0 1
5 4 25 50 21 5 1 2
5 4 25 48 21 5 1 2
5 4 25 47 20 5 1 2
5 4 24 45 20 6 2 2
5 4 24 44 19 6 2 2
6 3 23 42 18 7 3 3
6 3 22 38 17 7 3 3
6 3 21 36 16 6 3 3
6 4 20 34 15 6 3 3
6 4 19 31 13 5 3 3
5 5 18 29 12 4 3 3
4 4 18 28 11 4 3 3
3 3 18 26 10 4 2 2
2 2 18 25 9 3 2 2
1 0 18 23 8 3 1 1
0 -2 18 22 7 2 0 0
0 -3 17 21 6 2 0 0
0 -3 17 19 5 1 -2 0
-2 -4 16 18 4 1 -2 0
-2 -5 15 16 3 0 -3 0
-3 -6 14 15 2 -2 -4 -2
-3 -6 14 15 2 -2 -4 -2
-3 -6 14 14 1 -2 -4 -3
-4 -7 15 14 1 -3 -4 -3
-4 -7 15 13 0 -3 -4 -4
-5 -8 16 12 -2 -4 -4 -5
-5 -8 16 12 -2 -4 -4 -5
-5 -8 16 12 -2 -4 -4 -5
-5 -8 15 12 -2 -4 -4 -5
-5 -8 15 12 -2 -4 -4 -5
-6 -9 14 11 -3 -4 -5 -4
-6 -9 14 11 -3 -4 -5 -4
-6 -9 14 11 -3 -4 -5 -4
-6 -9 14 11 -4 -4 -5 -5
-6 -9 14 11 -4 -4 -5 -5
-6 -10 14 11 -5 -5 -5 -6
-6 -10 14 11 -5 -5 -5 -6
-6 -10 14 11 -5 -5 -5 -6
-5 -10 13 11 -5 -5 -5 -6
-5 -10 13 11 -5 -5 -5 -6
-4 -9 12 10 -5 -6 -5 -5
-4 -9 12 10 -5 -6 -5 -5
-4 -9 12 10 -5 -6 -5 -5
-5 -10 13 10 -4 -6 -5 -5
-5 -10 13 10 -4 -6 -5 -5
-6 -11 14 11 -3 -5 -5 -6
-6 -11 14 11 -3 -5 -5 -6
-6 -11 14 11 -3 -5 -5 -6
-5 -10 13 11 -3 -4 -5 -6
-5 -10 13 11 -3 -4 -5 -6
-4 -9 12 11 -4 -3 -4 -6
-4 -9 12 11 -4 -3 -4 -6
-4 -9 12 11 -4 -3 -4 -6
-4 -9 12 11 -4 -3 -4 -6
-4 -9 12 11 -4 -3 -4 -6
-3 -10 13 11 -4 -3 -5 -5
-3 -10 13 11 -4 -3 -5 -5
-3 -10 13 11 -4 -3 -5 -5
-4 -10 13 11 -4 -3 -5 -5
-4 -10 13 11 -4 -3 -5 -5
-5 -9 12 10 -4 -3 -5 -5
-5 -9 12 10 -4 -3 -5 -5
-5 -9 12 10 -4 -3 -5 -5
-5 -9 12 9 -4 -3 -5 -5
-5 -9 12 9 -4 -3 -5 -5
-5 -9 12 8 -4 -3 -5 -5
-5 -9 12 8 -4 -3 -5 -5
-5 -9 12 8 -4 -3 -5 -5
-6 -8 12 8 -3 -3 -5 -5
-6 -8 12 8 -3 -3 -5 -5
-7 -7 12 8 -2 -2 -4 -4
-7 -5 13 8 0 0 -3 -3
-6 -3 14 8 1 1 -2 -2
-6 0 15 9 2 2 0 0
-5 2 17 9 3 3 1 1
-4 4 18 10 4 4 2 2
-4 4 18 10 4 4 2 2
-4 4 18 10 4 4 2 2
-4 4 18 10 4 4 3 2
-4 4 18 10 4 4 3 2
-4 3 19 11 3 4 4 1
-4 4 19 11 3 4 4 1
-3 5 19 11 3 4 4 1
-3 6 19 10 3 5 4 2
-2 8 19 10 3 5 4 2
0 9 20 9 3 6 5 3
0 10 17 9 3 6 5 3
0 11 15 8 3 6 5 4
1 12 12 8 3 6 5 4
1 13 9 7 3 6 5 5
2 14 7 6 2 7 6 6
2 14 5 4 1 6 6 6
2 14 3 2 0 5 5 6
2 14 2 1 -2 4 4 6
2 14 0 -2 -4 3 3 6
2 13 -3 -4 -5 2 2 5
2 13 -3 -6 -6 2 2 5
2 13 -3 -8 -7 1 1 4
3 12 -4 -9 -8 0 1 4
3 12 -4 -11 -10 -2 0 3
4 11 -5 -13 -11 -3 -2 2
4 11 -5 -12 -11 -3 -2 2
5 10 -4 -10 -10 -2 0 2
5 9 -3 -8 -9 -2 0 3
6 8 -2 -7 -8 0 1 3
7 7 0 -5 -7 1 2 4
6 6 0 -5 -7 1 2 3
5 4 0 -5 -7 0 1 2
4 2 1 -5 -7 0 1 1
2 1 1 -5 -7 -2 0 0
1 -2 2 -4 -7 -3 -2 -2
0 -4 2 -5 -8 -4 -4 -4
-2 -6 1 -7 -9 -6 -6 -6
-3 -9 1 -9 -10 -8 -8 -7
-5 -11 0 -10 -11 -9 -10 -9
-6 -13 -2 -12 -12 -11 -12 -11
-6 -13 -2 -12 -13 -11 -12 -11
-6 -14 -3 -13 -14 -12 -13 -12
-6 -14 -3 -13 -15 -13 -13 -12
-6 -15 -4 -14 -17 -14 -14 -13
-7 -16 -5 -15 -18 -15 -15 -14
-7 -16 -5 -15 -18 -15 -15 -14
-7 -16 -5 -15 -18 -15 -15 -14
-7 -17 -5 -15 -18 -16 -15 -14
-7 -17 -5 -15 -18 -16 -15 -14
-8 -18 -4 -15 -18 -17 -16 -15
-8 -18 -4 -15 -18 -17 -16 -15
-8 -18 -4 -15 -18 -17 -16 -15
-8 -19 -4 -15 -18 -18 -16 -15
-8 -19 -4 -15 -18 -18 -16 -15
-9 -20 -4 -16 -18 -19 -16 -15
-9 -20 -4 -16 -19 -19 -16 -15
-9 -20 -4 -16 -21 -19 -16 -15
-9 -20 -4 -15 -23 -19 -16 -16
-9 -20 -4 -15 -24 -19 -16 -16
-10 -21 -3 -14 -26 -20 -17 -17
-10 -21 -3 -14 -28 -20 -17 -17
-10 -21 -3 -14 -30 -20 -17 -17
-10 -21 -3 -14 -32 -19 -17 -16
-10 -21 -3 -14 -34 -19 -17 -16
-10 -21 -2 -14 -36 -18 -16 -15
-10 -21 -2 -14 -36 -18 -16 -15
-10 -22 -2 -14 -36 -18 -16 -16
-10 -22 -2 -14 -36 -18 -16 -17
-10 -23 -2 -14 -36 -18 -16 -18
-9 -24 -2 -12 -36 -19 -16 -19
-7 -24 4 -2 -29 -14 -13 -18
-4 -23 8 9 -22 -10 -11 -16
-2 -23 12 18 -15 -5 -8 -15
2 -22 16 28 -8 0 -6 -14
6 -20 20 38 3 8 2 -10
16 -10 22 53 25 30 22 4
26 1 24 66 48 52 43 17
37 11 27 79 70 74 64 29
48 21 29 94 93 97 85 43
59 34 29 102 112 119 107 58
71 60 17 86 123 144 135 84
85 85 5 69 134 169 162 109
97 110 -8 53 144 192 190 135
109 136 -20 36 154 217 218 159
119 156 -33 15 156 233 239 181
111 156 -53 -31 118 207 228 180
103 156 -72 -76 79 182 217 178
95 157 -93 -122 40 156 204 176
87 157 -112 -169 2 131 193 175
74 154 -129 -210 -36 102 175 168
45 133 -129 -226 -75 60 129 137
16 110 -128 -243 -113 18 82 106
-14 88 -127 -260 -151 -24 36 75
-44 65 -126 -277 -189 -66 -11 45
-68 46 -124 -288 -220 -101 -49 18
-65 34 -119 -266 -208 -103 -55 7
-63 23 -114 -244 -198 -105 -60 -4
-60 12 -109 -222 -187 -107 -66 -14
-58 1 -104 -200 -177 -110 -71 -24
-54 -10 -98 -178 -164 -110 -75 -33
-48 -10 -83 -155 -146 -98 -67 -31
-41 -10 -69 -132 -128 -86 -60 -30
-35 -10 -56 -109 -109 -73 -52 -28
-29 -10 -41 -86 -91 -61 -44 -26
-24 -11 -29 -65 -74 -50 -36 -24
-21 -11 -24 -57 -67 -46 -33 -23
-19 -12 -20 -50 -60 -40 -30 -22
-16 -13 -15 -41 -53 -36 -28 -21
-14 -14 -10 -33 -46 -32 -25 -19
-11 -15 -6 -26 -39 -28 -22 -18
-11 -15 -5 -23 -37 -27 -22 -18
-11 -15 -4 -20 -35 -26 -21 -18
-10 -16 -3 -16 -33 -25 -20 -18
-10 -16 -2 -13 -31 -24 -19 -18
-9 -17 1 -10 -29 -22 -18 -17
-9 -17 1 -9 -28 -22 -18 -17
-9 -17 2 -8 -26 -21 -18 -17
-8 -18 3 -7 -25 -21 -17 -17
-8 -18 4 -6 -24 -20 -17 -17
-7 -19 5 -5 -22 -19 -16 -18
-7 -19 5 -4 -22 -19 -16 -18
-7 -19 5 -3 -21 -19 -16 -18
-7 -19 5 -2 -21 -18 -16 -17
-7 -19 5 0 -20 -18 -16 -17
-7 -20 5 2 -19 -17 -15 -16
-7 -20 5 2 -19 -17 -15 -16
-7 -20 6 2 -18 -17 -14 -16
-7 -20 6 3 -18 -17 -14 -16
-7 -20 7 3 -17 -17 -13 -16
-6 -19 8 4 -16 -16 -12 -16
-6 -19 8 5 -16 -16 -12 -16
-6 -19 8 6 -16 -16 -12 -16
-5 -18 8 7 -15 -15 -11 -15
-5 -18 8 8 -15 -15 -11 -15
-4 -17 9 9 -14 -14 -10 -14
-4 -17 9 9 -14 -14 -10 -14
-4 -16 9 9 -14 -14 -10 -15
-4 -16 9 10 -13 -14 -10 -15
-4 -15 9 10 -13 -14 -10 -16
-3 -14 9 11 -12 -14 -10 -17
-3 -14 9 11 -12 -14 -10 -17
-3 -14 9 12 -11 -13 -10 -16
-2 -14 9 13 -11 -13 -10 -15
-2 -14 9 14 -10 -12 -10 -14
0 -14 9 15 -9 -11 -10 -13
0 -14 9 16 -8 -10 -10 -13
0 -14 9 17 -7 -9 -9 -13
1 -14 10 18 -6 -8 -8 -13
1 -14 10 19 -5 -7 -7 -13
2 -13 11 21 -4 -5 -6 -12
2 -13 11 22 -4 -5 -6 -12
2 -12 11 23 -4 -5 -6 -12
2 -11 11 24 -3 -5 -6 -12
2 -10 11 25 -3 -5 -6 -12
2 -9 11 26 -2 -4 -6 -12
2 -9 11 26 0 -4 -6 -12
3 -9 11 27 1 -3 -6 -12
3 -9 12 28 2 -3 -6 -12
4 -9 12 29 3 -2 -6 -12
5 -9 13 30 5 0 -7 -12
5 -9 13 32 5 0 -7 -12
5 -9 13 34 5 0 -7 -11
5 -8 13 36 5 1 -6 -11
5 -8 13 38 5 1 -6 -10
4 -7 14 40 6 2 -5 -9
4 -7 14 42 7 2 -5 -9
4 -7 15 43 9 2 -4 -9
5 -7 15 44 10 3 -4 -9
5 -7 16 45 12 3 -3 -9
6 -8 17 46 14 4 -2 -8
6 -8 17 47 14 4 -2 -8
6 -7 17 49 15 4 -2 -7
7 -7 17 50 15 4 -2 -7
7 -6 17 52 16 4 -2 -6
8 -5 17 54 17 5 0 -5
8 -5 17 54 17 5 0 -5
8 -4 17 54 17 5 0 -5
8 -4 18 55 17 5 0 -5
8 -3 18 55 17 5 0 -5
7 -2 19 56 18 5 -2 -4
7 -2 19 56 18 5 -2 -4
7 -2 19 56 17 5 -2 -4
7 0 19 56 17 5 -2 -4
7 0 19 56 16 5 -2 -4
6 1 18 55 15 4 -3 -3
6 1 18 55 15 4 -3 -3
6 1 18 54 15 4 -3 -3
6 1 19 53 14 4 -3 -4
6 1 19 52 14 4 -3 -4
7 2 20 51 13 3 -4 -5
7 2 20 51 13 3 -4 -5
7 2 20 50 12 2 -4 -5
6 2 19 50 12 1 -4 -5
6 2 19 49 11 0 -4 -5
5 3 18 48 10 -2 -5 -5
5 4 18 48 10 -2 -4 -5
5 5 18 47 11 0 -3 -4
5 6 18 47 11 1 -2 -4
5 7 18 46 12 2 0 -3
5 8 18 45 13 3 1 -2
5 8 18 44 13 3 1 -2
5 8 18 43 13 3 2 -2
5 8 17 42 13 3 2 0
5 8 17 40 13 3 3 0
5 9 16 38 12 4 4 1
5 9 16 37 12 4 4 1
5 9 16 35 12 5 4 1
5 8 16 33 12 5 5 1
5 8 16 31 12 6 5 1
5 7 16 29 12 7 6 1
5 7 16 28 11 7 6 1
4 6 16 27 10 7 6 1
4 6 15 25 9 7 6 1
3 5 15 24 8 7 6 1
2 4 14 22 7 6 6 1
2 4 14 20 7 5 6 1
2 3 14 18 6 4 5 0
1 3 13 16 5 3 4 -2
1 2 13 14 4 2 3 -3
0 1 12 12 3 1 2 -4
0 1 12 12 2 1 2 -4
0 1 11 11 1 1 1 -5
-2 1 11 10 0 0 0 -5
-2 1 10 9 -2 0 -2 -6
-3 1 9 8 -3 -2 -3 -7
-3 1 9 8 -3 -2 -3 -7
-4 1 9 7 -3 -3 -3 -7
-4 1 9 7 -3 -3 -4 -8
-5 1 9 6 -3 -4 -4 -8
-6 0 9 5 -3 -5 -5 -9
-6 0 9 5 -3 -5 -5 -9
-6 0 9 5 -3 -5 -5 -9
-6 0 9 4 -3 -5 -5 -9
-6 0 9 4 -3 -5 -5 -9
-7 0 8 3 -4 -6 -6 -9
-7 0 8 3 -4 -6 -6 -9
-7 0 8 3 -4 -6 -6 -9
-7 -2 9 4 -4 -5 -6 -9
-7 -2 9 4 -4 -5 -6 -9
-8 -3 10 5 -3 -4 -5 -8
-8 -3 10 5 -3 -4 -5 -8
-8 -3 10 5 -3 -4 -5 -8
-8 -3 10 5 -3 -4 -5 -8
-8 -3 10 5 -3 -4 -5 -8
-8 -4 9 5 -4 -4 -5 -8
-8 -4 9 5 -4 -4 -5 -8
-8 -4 9 5 -4 -4 -5 -8
-8 -5 9 5 -3 -4 -5 -8
-8 -5 9 5 -3 -4 -5 -8
-8 -6 9 6 -2 -4 -5 -9
-8 -6 9 6 -2 -4 -5 -9
-8 -6 9 6 -2 -4 -5 -9
-8 -6 9 6 -2 -4 -5 -9
-8 -6 9 6 -2 -4 -5 -9
-8 -6 10 6 0 -3 -4 -8
-8 -6 10 6 0 -3 -4 -8
-8 -7 10 6 0 -3 -4 -8
-8 -7 10 6 0 -4 -4 -9
-8 -8 10 6 0 -4 -4 -9
-8 -9 10 5 0 -5 -4 -10
-8 -9 10 5 0 -5 -4 -10
-8 -9 10 5 0 -5 -4 -9
-8 -9 10 5 0 -5 -4 -9
-8 -9 10 5 0 -5 -4 -8
-8 -9 9 4 -2 -5 -5 -7
-8 -9 9 4 -2 -5 -5 -7
-8 -9 9 4 -2 -5 -5 -7
-8 -9 9 4 -2 -4 -5 -7
-8 -9 9 4 -2 -4 -5 -7
-7 -8 9 4 0 -3 -4 -8
-7 -7 9 4 0 -3 -4 -7
-7 -6 10 5 1 -2 -4 -6
-6 -4 11 5 1 -2 -3 -5
-6 -3 12 6 2 0 -3 -4
-5 0 13 7 3 1 -2 -3
-5 1 13 7 3 1 -2 -3
-5 2 13 7 4 1 -2 -3
-6 3 13 7 4 1 -2 -3
-6 4 13 7 5 1 -2 -3
-7 5 14 7 6 2 -2 -3
-7 5 14 7 6 2 -2 -3
-7 6 14 7 6 2 -2 -3
-7 7 15 7 6 2 0 -3
-7 8 15 7 6 2 0 -3
-6 9 16 7 6 2 1 -2
-5 10 16 7 6 2 2 -2
-4 12 16 7 7 3 3 0
-2 13 16 6 7 4 4 1
0 15 16 6 8 5 5 2
2 17 15 5 9 6 7 3
2 17 12 4 7 6 7 3
2 17 9 2 5 5 6 3
2 17 6 0 3 5 5 3
2 17 3 -3 1 4 4 3
2 17 -2 -5 -3 3 3 3
2 17 -2 -6 -3 2 3 3
2 16 -3 -7 -4 1 2 2
3 15 -3 -8 -4 0 2 2
3 14 -4 -9 -5 -2 1 1
4 13 -5 -10 -6 -3 0 0
4 13 -5 -10 -6 -3 0 0
4 13 -5 -10 -7 -3 0 0
5 13 -5 -11 -7 -3 -2 1
5 13 -5 -11 -8 -3 -2 1
6 13 -5 -12 -9 -3 -3 2
6 12 -4 -11 -8 -3 -3 2
6 10 -3 -10 -6 -2 -2 2
6 8 -2 -8 -5 0 0 2
6 6 0 -7 -3 1 1 2
7 4 1 -5 0 2 2 1
6 3 1 -5 -2 1 1 1
5 1 1 -6 -3 -2 -2 0
4 0 1 -6 -5 -3 -3 -2
3 -3 1 -7 -6 -5 -5 -3
1 -5 1 -8 -8 -7 -7 -4
0 -7 1 -9 -9 -8 -8 -5
-3 -9 0 -10 -10 -10 -10 -7
-4 -12 0 -11 -11 -12 -11 -9
-6 -14 -2 -12 -12 -14 -13 -11
-8 -17 -3 -14 -14 -16 -15 -13
-8 -17 -3 -14 -14 -16 -15 -13
-8 -17 -3 -14 -15 -16 -15 -13
-8 -17 -3 -14 -15 -17 -15 -13
-8 -17 -3 -14 -16 -17 -15 -13
-8 -17 -3 -14 -16 -17 -15 -13
-7 -18 -4 -15 -17 -18 -16 -13
-7 -18 -4 -15 -17 -18 -16 -13
-7 -18 -4 -15 -17 -18 -16 -14
-7 -18 -4 -15 -17 -18 -16 -14
-7 -18 -4 -15 -17 -18 -16 -14
-8 -19 -4 -15 -16 -18 -16 -15
-8 -19 -4 -15 -16 -18 -16 -15
-8 -19 -4 -15 -17 -18 -16 -15
-8 -19 -4 -15 -17 -18 -16 -15
-8 -19 -4 -15 -17 -18 -16 -15
-9 -20 -4 -15 -18 -19 -17 -16
-9 -21 -4 -15 -18 -19 -17 -16
-10 -21 -3 -15 -17 -19 -17 -17
-10 -22 -3 -15 -17 -19 -17 -17
-10 -22 -3 -15 -17 -19 -17 -17
-11 -23 -2 -15 -16 -18 -18 -18
-11 -23 -2 -15 -16 -18 -18 -18
-11 -23 -2 -15 -16 -18 -18 -18
-11 -23 -2 -15 -16 -18 -18 -18
-11 -23 -2 -15 -16 -18 -18 -18
-10 -22 -2 -13 -17 -18 -18 -17
-10 -22 -2 -11 -16 -18 -18 -17
-10 -23 -2 -9 -15 -18 -18 -18
-10 -23 -2 -7 -14 -18 -18 -18
-10 -23 -2 -5 -13 -18 -18 -18
-5 -22 5 11 0 -9 -13 -16
0 -20 12 25 12 0 -6 -12
5 -17 19 39 24 9 2 -8
9 -15 26 55 36 18 9 -4
13 -13 32 69 49 26 15 1
27 3 32 76 71 52 40 19
42 18 30 84 94 78 65 37
56 33 28 91 116 104 91 55
70 49 26 98 140 130 116 73
85 64 25 105 162 156 142 92
95 86 8 77 161 168 161 113
104 107 -9 47 158 180 180 134
113 129 -26 16 155 191 199 155
123 151 -43 -15 152 202 219 177
133 173 -60 -45 150 214 238 198
111 162 -72 -87 103 179 209 184
88 150 -86 -128 55 141 177 168
64 138 -98 -170 7 103 144 151
40 126 -111 -211 -41 66 112 134
16 113 -123 -253 -90 28 80 117
-2 95 -120 -257 -111 0 50 94
-19 77 -116 -259 -132 -29 20 69
-36 59 -112 -261 -153 -57 -10 45
-55 40 -108 -263 -174 -86 -39 20
-72 22 -104 -265 -195 -113 -69 -4
-69 15 -97 -243 -183 -110 -70 -10
-64 8 -91 -219 -168 -105 -69 -14
-59 1 -83 -195 -152 -99 -67 -19
-55 -7 -76 -171 -138 -93 -66 -23
-50 -14 -70 -147 -122 -88 -65 -27
-44 -15 -60 -126 -107 -77 -58 -26
-37 -15 -49 -105 -92 -67 -51 -24
-31 -14 -38 -85 -76 -58 -44 -21
-25 -14 -27 -65 -60 -48 -37 -19
-19 -14 -17 -45 -45 -37 -30 -17
-17 -13 -14 -38 -40 -34 -27 -16
-15 -14 -11 -33 -35 -31 -25 -15
-14 -15 -9 -28 -31 -28 -23 -14
-12 -16 -6 -24 -27 -25 -21 -13
-11 -16 -4 -19 -23 -23 -19 -13
-10 -17 -3 -16 -21 -22 -18 -12
-10 -18 -3 -13 -20 -22 -18 -12
-10 -19 -2 -10 -18 -22 -17 -12
-10 -20 -2 -7 -17 -22 -17 -12
-10 -20 -2 -5 -16 -22 -17 -12
-10 -21 1 -4 -15 -21 -16 -12
-9 -21 2 -4 -14 -20 -16 -12
-8 -21 3 -3 -13 -18 -16 -12
-7 -21 4 -3 -12 -17 -16 -12
-7 -21 5 -3 -12 -16 -16 -12
-6 -20 6 0 -11 -15 -15 -11
-6 -20 6 1 -11 -15 -15 -11
-6 -20 6 2 -11 -15 -15 -11
-6 -20 6 3 -11 -15 -15 -11
-6 -20 6 4 -11 -15 -15 -11
-6 -20 7 5 -10 -15 -15 -12
-6 -20 7 5 -9 -14 -14 -11
-5 -20 7 5 -8 -13 -13 -10
-5 -20 7 5 -7 -12 -12 -9
-5 -20 7 5 -7 -11 -11 -9
-4 -19 8 6 -6 -10 -10 -8
-4 -19 8 7 -6 -10 -10 -8
-3 -18 8 7 -6 -11 -10 -9
-3 -18 8 8 -6 -11 -10 -9
-3 -18 8 8 -6 -11 -10 -9
-2 -17 8 9 -6 -12 -11 -10
-2 -17 8 9 -5 -11 -10 -9
-2 -16 8 9 -5 -10 -10 -8
-2 -16 8 9 -4 -9 -9 -7
-2 -16 8 9 -4 -9 -9 -6
0 -15 8 10 -3 -8 -8 -5
0 -15 9 11 -3 -8 -8 -5
0 -15 9 13 -2 -8 -8 -5
0 -15 10 14 -2 -8 -8 -5
0 -15 10 15 -2 -8 -8 -5
1 -14 11 16 0 -7 -7 -6
2 -13 10 16 0 -6 -7 -6
3 -13 9 16 0 -6 -7 -6
4 -12 8 16 0 -5 -7 -6
4 -12 7 16 0 -5 -7 -6
5 -11 6 16 1 -4 -6 -6
5 -10 7 17 2 -4 -6 -6
5 -10 7 19 3 -4 -6 -6
5 -9 8 20 4 -4 -6 -6
5 -9 8 21 4 -4 -6 -6
6 -8 9 22 5 -5 -6 -7
6 -8 9 22 6 -4 -5 -6
7 -9 9 23 7 -3 -4 -5
7 -9 9 23 8 -2 -3 -4
7 -9 9 23 8 0 -3 -4
8 -10 10 25 9 1 -2 -3
8 -9 10 28 9 0 -2 -3
8 -9 9 30 10 0 -3 -2
8 -8 9 32 10 -2 -3 -2
8 -8 9 34 10 -2 -3 -2
8 -7 8 35 11 -3 -4 0
8 -6 9 36 12 -2 -4 0
8 -6 10 37 13 0 -3 1
8 -5 11 38 14 1 -3 1
8 -5 11 38 15 1 -3 1
9 -4 12 40 16 2 -2 2
9 -4 12 42 16 2 -2 2
9 -4 12 44 16 2 0 2
9 -4 12 45 16 2 0 2
9 -4 12 46 16 2 0 2
9 -4 12 47 16 1 1 3
10 -4 12 46 16 1 1 3
10 -4 12 46 16 2 1 4
11 -4 12 45 16 2 1 4
11 -4 12 45 16 2 1 4
12 -3 12 44 17 3 2 5
11 -2 12 45 17 3 1 5
10 0 12 45 16 2 1 5
9 1 12 46 16 2 0 5
8 2 12 46 16 2 0 5
7 3 12 46 15 1 -2 5
7 3 12 45 15 1 -2 5
7 3 12 43 14 1 -2 5
7 3 12 42 14 1 -2 5
7 3 12 40 14 1 -2 5
7 4 13 39 13 0 -2 4
7 5 13 39 12 -2 -2 4
7 6 13 38 11 -3 -3 4
7 7 13 38 10 -4 -3 4
7 8 13 38 10 -4 -3 4
7 9 12 36 9 -4 -3 5
7 9 12 35 9 -3 -2 6
7 9 11 33 9 -2 0 7
7 9 11 32 9 0 1 8
7 9 11 31 9 1 2 9
7 10 10 30 10 2 3 10
7 10 11 30 10 2 3 10
7 9 11 29 10 2 3 10
7 9 12 29 10 2 3 10
7 9 12 29 10 2 3 10
6 8 13 26 10 2 4 10
6 7 13 24 10 3 5 10
6 6 12 22 10 4 5 10
6 5 12 19 10 5 6 10
6 5 12 17 10 5 6 10
5 4 11 15 11 6 7 9
4 3 11 14 10 6 7 9
4 2 11 13 9 5 6 9
3 1 11 12 8 5 6 9
3 1 11 11 7 5 6 9
2 0 11 9 5 4 5 9
1 0 10 7 4 3 4 8
0 0 9 5 3 2 4 8
-2 0 8 3 2 1 3 7
-2 0 7 1 1 0 3 7
-3 -2 6 0 0 -2 2 6
-3 -2 6 0 -2 -2 2 5
-4 -3 7 0 -2 -3 1 4
-4 -3 7 0 -3 -3 1 3
-4 -3 7 0 -3 -3 1 2
-5 -4 8 0 -4 -4 0 1
-5 -5 8 -2 -4 -4 0 1
-4 -6 8 -3 -4 -4 0 2
-4 -7 8 -4 -4 -4 0 2
-4 -7 8 -4 -4 -4 0 2
-3 -8 9 -5 -4 -4 0 3
-4 -8 9 -5 -4 -4 -2 2
-4 -8 9 -5 -4 -5 -3 2
-5 -8 9 -5 -4 -5 -4 1
-5 -8 9 -5 -4 -5 -4 1
-6 -8 9 -4 -5 -6 -5 0
-6 -8 9 -4 -5 -5 -4 0
-6 -8 9 -4 -5 -5 -3 0
-6 -8 9 -4 -5 -4 -2 0
-6 -8 9 -4 -5 -4 -2 0
-6 -9 8 -5 -4 -3 0 0
-6 -9 8 -4 -4 -4 -2 0
-6 -9 8 -4 -4 -4 -2 0
-6 -9 8 -3 -4 -5 -3 0
-6 -9 8 -3 -4 -5 -3 0
-7 -9 8 -2 -4 -6 -4 0
-7 -8 8 -2 -4 -5 -4 0
-7 -8 8 -3 -4 -5 -4 0
-7 -7 8 -3 -4 -4 -4 0
-7 -7 8 -3 -4 -4 -4 0
-6 -6 8 -4 -3 -3 -4 0
-6 -7 8 -4 -3 -3 -4 0
-6 -7 8 -4 -3 -4 -4 0
-6 -8 8 -4 -3 -4 -4 0
-6 -8 8 -4 -3 -4 -4 0
-7 -9 7 -4 -4 -5 -4 -2
-7 -9 7 -4 -4 -5 -4 -2
-7 -9 7 -4 -4 -5 -4 -2
-7 -9 7 -4 -4 -5 -4 -2
-7 -9 7 -4 -4 -5 -4 -2
-6 -9 8 -4 -3 -5 -4 0
-6 -9 8 -4 -3 -6 -4 -2
-6 -8 7 -5 -4 -6 -4 -2
-6 -8 7 -5 -4 -7 -4 -3
-6 -8 7 -5 -4 -7 -4 -3
-6 -7 6 -6 -5 -8 -4 -4
-6 -7 6 -6 -5 -7 -4 -3
-6 -6 6 -6 -5 -6 -4 -3
-6 -6 6 -6 -5 -5 -4 -2
-6 -6 6 -6 -5 -5 -4 -2
-5 -4 5 -6 -4 -4 -3 0
-5 -3 7 -5 -4 -4 -2 0
-5 -2 8 -5 -3 -3 -2 1
-5 1 9 -4 -3 -3 0 1
-5 2 10 -4 -3 -3 0 1
-5 3 11 -3 -2 -2 1 2
-5 4 12 -3 0 0 1 2
-5 4 12 -2 0 1 1 2
-5 5 13 -2 1 2 1 2
-5 5 13 -2 1 2 1 2
-5 6 14 0 2 3 1 1
-5 7 14 0 2 3 1 2
-5 8 14 1 2 3 1 2
-5 9 14 1 2 3 1 3
-5 9 14 1 2 3 1 3
-4 11 14 1 2 2 2 4
-2 13 13 0 2 3 3 5
1 16 11 -2 2 4 4 6
2 18 9 -4 2 5 5 7
4 20 8 -5 2 5 6 7
5 21 6 -7 1 5 6 8
5 20 4 -8 -2 4 5 7
5 20 1 -9 -4 2 4 6
5 19 -2 -11 -5 0 2 5
5 19 -4 -12 -7 -2 1 5
6 18 -5 -13 -8 -3 0 4
6 17 -5 -14 -8 -3 0 4
6 16 -5 -14 -9 -3 0 5
6 15 -5 -15 -9 -3 0 5
6 15 -5 -15 -9 -3 0 5
5 14 -5 -16 -10 -3 0 6
5 14 -5 -15 -10 -3 0 6
5 14 -5 -14 -10 -3 0 6
5 14 -5 -13 -10 -3 0 6
5 14 -5 -12 -10 -3 0 6
6 12 -5 -11 -10 -3 0 7
5 10 -3 -10 -9 -3 0 6
5 7 -2 -10 -8 -2 0 5
4 5 0 -9 -7 -2 0 4
4 2 1 -9 -7 -2 0 3
3 0 2 -8 -6 -2 0 1
1 -3 2 -9 -7 -3 -2 0
0 -5 1 -9 -8 -5 -4 -2
-2 -7 1 -10 -9 -7 -6 -4
-3 -9 1 -10 -10 -8 -7 -5
-4 -10 0 -11 -11 -9 -9 -7
-5 -12 -2 -12 -13 -11 -10 -8
-5 -13 -3 -13 -14 -12 -11 -10
-6 -14 -4 -14 -15 -13 -13 -12
-6 -15 -4 -15 -16 -14 -14 -13
-7 -16 -5 -16 -17 -15 -15 -14
-7 -16 -5 -16 -17 -15 -15 -14
-7 -16 -5 -16 -17 -15 -15 -14
-7 -16 -5 -16 -17 -15 -15 -14
-7 -16 -5 -16 -17 -15 -15 -14
-7 -17 -4 -16 -18 -16 -16 -14
-7 -18 -3 -15 -17 -16 -16 -14
-7 -19 -3 -15 -17 -16 -16 -14
-7 -20 -2 -14 -16 -16 -16 -14
-7 -21 -2 -14 -16 -16 -16 -14
-8 -22 0 -13 -15 -17 -17 -13
-8 -22 0 -13 -15 -17 -17 -13
-8 -22 -2 -13 -16 -17 -17 -13
-8 -22 -2 -13 -16 -17 -17 -13
-8 -22 -2 -13 -16 -17 -17 -13
-8 -22 -3 -14 -17 -17 -16 -14
-8 -22 -3 -14 -17 -17 -16 -14
-8 -22 -3 -14 -17 -17 -16 -14
-8 -22 -3 -14 -17 -17 -16 -14
-8 -22 -3 -14 -17 -17 -16 -14
-8 -22 -3 -13 -16 -17 -16 -15
-8 -23 -2 -12 -16 -17 -16 -15
-8 -23 -2 -11 -16 -17 -16 -15
-8 -24 0 -10 -16 -17 -16 -15
-8 -24 0 -10 -16 -17 -16 -15
-8 -25 2 -5 -13 -15 -15 -16
-6 -25 5 2 -8 -14 -14 -16
-4 -25 7 9 -3 -12 -13 -16
-2 -25 10 15 3 -10 -12 -16
1 -25 12 21 8 -9 -12 -16
7 -20 17 35 24 6 1 -10
15 -13 22 53 44 23 16 1
22 -6 28 70 63 42 32 10
30 2 33 87 82 59 48 19
38 9 39 104 102 77 64 28
51 27 36 104 120 103 91 49
64 51 28 97 140 132 120 73
78 74 20 90 159 160 151 98
92 97 12 82 178 189 181 122
106 120 4 74 197 217 212 147
109 133 -15 40 181 217 219 159
108 143 -35 -4 150 205 218 167
107 152 -57 -48 120 194 217 174
105 161 -78 -92 90 183 215 181
104 171 -99 -135 60 172 214 188
80 159 -105 -166 19 136 181 170
51 140 -106 -194 -25 90 137 142
20 120 -107 -222 -70 45 93 113
-11 101 -108 -249 -114 0 49 86
-41 81 -109 -277 -159 -47 5 58
-53 64 -109 -274 -173 -67 -19 37
-57 49 -107 -259 -175 -79 -34 20
-61 33 -105 -242 -176 -91 -50 2
-65 18 -103 -227 -178 -103 -65 -16
-69 4 -101 -212 -180 -114 -79 -33
-66 -3 -93 -190 -166 -111 -80 -37
-59 -4 -81 -166 -146 -100 -73 -36
-51 -6 -71 -144 -126 -89 -66 -34
-44 -7 -60 -120 -106 -77 -59 -33
-36 -9 -49 -98 -86 -66 -52 -31
-31 -11 -40 -81 -72 -58 -47 -29
-27 -12 -33 -67 -61 -51 -41 -27
-23 -14 -25 -54 -50 -44 -35 -25
-19 -15 -18 -40 -38 -36 -30 -23
-16 -17 -11 -26 -27 -29 -25 -21
-14 -18 -7 -20 -23 -27 -23 -20
-12 -18 -6 -17 -21 -26 -23 -20
-11 -19 -5 -14 -19 -25 -22 -20
-10 -19 -3 -11 -16 -24 -22 -20
-9 -19 -2 -8 -14 -23 -22 -20
-8 -20 0 -6 -12 -22 -21 -20
-8 -20 0 -4 -10 -21 -21 -20
-7 -21 1 -2 -9 -20 -21 -20
-7 -21 1 1 -7 -20 -21 -20
-7 -21 1 3 -5 -19 -21 -20
-6 -22 2 4 -4 -18 -20 -21
-6 -20 2 4 -4 -18 -19 -21
-5 -19 2 5 -4 -17 -19 -20
-5 -18 2 5 -4 -17 -18 -20
-5 -17 2 5 -4 -17 -18 -20
-4 -16 3 6 -3 -16 -17 -19
-3 -17 4 7 0 -15 -16 -19
-3 -17 4 8 1 -15 -16 -19
-2 -18 5 9 2 -14 -15 -19
-2 -18 5 10 3 -14 -15 -19
0 -19 6 11 4 -13 -14 -20
0 -18 6 11 4 -12 -13 -20
-2 -17 6 11 4 -12 -13 -20
-2 -17 6 11 4 -11 -12 -20
-2 -16 6 11 4 -11 -12 -20
-3 -15 7 12 5 -10 -11 -19
-2 -15 7 14 6 -10 -11 -19
0 -15 7 15 7 -10 -11 -19
0 -15 7 16 7 -10 -11 -19
1 -15 7 17 8 -10 -11 -19
2 -15 7 18 9 -9 -10 -18
2 -15 7 18 9 -8 -9 -17
2 -14 7 19 9 -7 -8 -16
2 -14 7 19 9 -7 -8 -15
2 -14 7 19 9 -6 -7 -14
2 -13 7 20 10 -5 -6 -13
2 -13 7 21 11 -5 -6 -14
2 -13 7 22 11 -5 -7 -15
2 -13 7 23 12 -5 -7 -15
2 -13 7 24 12 -5 -7 -16
2 -14 7 25 13 -5 -8 -17
4 -13 6 25 14 -4 -7 -17
5 -13 6 25 14 -3 -7 -16
6 -12 5 25 15 -3 -6 -16
7 -12 5 25 15 -2 -6 -16
8 -11 4 26 16 0 -5 -15
7 -10 5 28 18 0 -5 -15
7 -10 6 30 19 0 -5 -15
6 -9 7 33 21 0 -5 -15
6 -9 8 35 22 0 -5 -15
5 -8 9 36 23 0 -5 -15
6 -7 8 36 23 1 -4 -14
7 -6 8 37 24 1 -4 -13
8 -6 7 37 24 2 -3 -13
9 -5 7 37 24 2 -3 -12
10 -4 6 39 25 3 -2 -11
10 -4 6 43 26 3 -2 -11
10 -5 7 45 26 2 -2 -11
10 -5 7 47 27 2 -2 -11
10 -5 7 50 27 2 -2 -11
11 -6 8 51 28 1 -3 -12
11 -5 9 53 30 2 -2 -10
11 -5 9 54 31 3 0 -9
11 -4 10 56 33 4 0 -8
11 -4 10 57 34 5 1 -7
12 -3 11 58 35 6 2 -6
12 -3 11 59 35 6 2 -6
12 -4 11 59 35 5 1 -7
12 -4 11 60 35 5 1 -7
12 -4 11 60 35 5 1 -7
12 -5 10 61 34 4 0 -8
12 -4 10 61 34 4 0 -7
13 -3 11 61 33 4 0 -7
13 -2 11 61 33 4 0 -6
13 0 11 61 33 4 0 -6
14 1 12 60 32 4 1 -5
13 1 12 60 31 3 0 -5
12 1 12 60 30 2 -2 -6
11 1 12 60 30 2 -2 -7
10 1 12 60 29 1 -3 -7
9 2 12 59 28 0 -4 -8
9 3 12 57 27 0 -4 -7
9 4 12 56 26 0 -3 -6
9 4 12 54 26 0 -2 -5
9 5 12 53 25 0 -2 -4
8 6 11 52 24 1 0 -3
8 6 11 52 24 1 0 -3
9 6 11 51 24 1 0 -3
9 6 11 51 24 1 0 -3
9 6 11 51 24 1 0 -3
10 5 11 49 24 1 -2 -2
10 5 11 47 24 1 0 -2
9 6 10 45 23 1 1 0
8 6 9 43 23 1 1 1
8 6 9 40 23 1 2 1
7 7 8 39 22 2 3 2
7 7 9 38 22 3 3 2
7 6 10 37 22 5 4 2
7 6 10 36 22 6 5 2
7 6 11 35 22 7 5 2
6 5 12 33 22 8 6 1
6 5 12 32 21 8 6 1
5 5 11 30 20 8 6 1
5 5 11 28 20 8 6 1
5 5 11 26 19 8 6 1
4 6 10 24 18 7 6 0
4 5 10 23 17 7 6 0
3 3 10 21 16 6 5 -2
2 2 10 20 16 6 4 -3
2 1 10 18 15 6 4 -3
1 0 9 17 14 4 3 -4
0 0 9 15 12 3 2 -4
-2 -2 9 14 11 1 1 -5
-3 -3 9 12 9 0 1 -6
-4 -3 9 11 8 -3 0 -6
-5 -4 10 10 7 -4 -2 -7
-5 -4 10 10 7 -4 -3 -8
-5 -4 10 9 6 -4 -4 -9
-5 -4 10 9 6 -4 -4 -10
-5 -4 10 9 6 -4 -5 -11
-6 -5 9 8 5 -4 -6 -12
-6 -5 9 8 5 -4 -6 -12
-6 -5 9 7 5 -4 -6 -11
-6 -5 9 7 5 -4 -6 -11
-6 -5 9 7 5 -4 -6 -11
-7 -6 8 6 4 -5 -5 -10
-7 -6 8 6 4 -5 -5 -10
-7 -5 8 6 3 -5 -5 -10
-7 -5 8 6 3 -5 -5 -10
-7 -5 8 6 3 -5 -5 -10
-6 -4 8 5 2 -4 -4 -10
-6 -4 8 5 2 -4 -4 -10
-6 -4 7 5 2 -4 -4 -10
-6 -4 7 5 2 -4 -4 -10
-6 -4 7 5 2 -4 -4 -10
-6 -4 6 5 2 -5 -3 -9
-6 -4 6 5 2 -5 -3 -9
-7 -5 7 6 2 -4 -4 -9
-7 -5 7 6 2 -4 -4 -9
-7 -5 7 6 2 -4 -4 -9
-8 -6 8 7 1 -3 -5 -10
-8 -6 8 7 2 -3 -5 -10
-8 -7 8 7 3 -3 -5 -9
-8 -7 8 7 3 -3 -5 -9
-8 -7 8 7 4 -3 -5 -9
-7 -8 9 7 5 -3 -4 -8
-7 -8 9 7 5 -3 -4 -8
-7 -7 9 7 4 -3 -4 -8
-7 -6 9 7 4 -3 -4 -8
-7 -6 9 7 4 -3 -4 -8
-6 -5 9 6 3 -4 -4 -9
-6 -5 9 6 3 -4 -4 -9
-6 -5 9 5 3 -4 -3 -8
-6 -5 9 5 3 -4 -3 -8
-6 -5 9 5 3 -4 -3 -8
-6 -6 9 4 3 -3 -2 -7
-6 -6 9 4 3 -3 -2 -7
-6 -6 9 4 3 -3 -2 -7
-6 -6 9 4 3 -3 -2 -7
-6 -6 9 4 3 -3 -2 -7
-5 -5 9 5 4 -2 0 -8
-5 -3 9 5 4 -2 0 -8
-5 0 9 5 5 0 1 -7
-5 1 9 5 5 1 2 -7
-5 3 9 5 5 1 2 -7
-5 4 10 4 6 2 3 -6
-5 4 11 4 6 2 3 -5
-5 5 12 4 7 3 3 -4
-5 6 13 4 7 3 3 -3
-5 6 14 4 7 3 3 -2
-5 7 15 5 8 4 2 0
-5 7 15 5 8 4 2 0
-4 7 15 5 7 4 3 0
-4 7 15 5 6 4 3 0
-4 7 15 5 6 4 3 0
-3 8 15 4 5 5 4 0
-3 9 15 4 6 5 4 0
-3 10 15 4 7 5 5 1
-3 10 15 4 8 5 6 1
-3 11 15 4 9 5 6 1
-2 12 14 2 9 6 7 2
-2 12 11 0 7 6 7 2
-2 13 8 -4 5 6 6 3
-2 13 5 -6 3 6 6 4
-2 13 3 -8 1 6 6 4
-2 14 1 -10 0 5 5 5
-2 13 1 -10 0 4 4 4
-2 12 2 -11 -2 2 3 3
-2 12 2 -11 -3 1 3 2
-2 11 2 -11 -3 0 2 1
-2 10 3 -12 -4 -2 1 0
-2 10 2 -12 -4 -2 1 1
-2 9 1 -13 -5 0 2 2
-2 9 0 -13 -5 0 2 2
-2 9 -2 -13 -5 0 2 3
0 7 -3 -14 -6 1 3 4
0 5 0 -12 -5 1 3 4
1 3 2 -10 -4 2 3 4
2 1 3 -9 -4 2 3 4
2 -3 5 -7 -3 2 3 4
3 -4 6 -6 -2 3 4 4
2 -5 6 -7 -3 2 3 3
1 -7 6 -8 -4 1 2 1
1 -8 6 -8 -5 0 1 -2
0 -9 6 -9 -6 -2 0 -4
-2 -11 5 -10 -8 -4 -3 -5
-3 -12 4 -11 -9 -6 -5 -7
-5 -14 2 -12 -11 -8 -7 -9
-6 -16 1 -12 -13 -10 -9 -10
-7 -18 0 -13 -15 -13 -12 -12
-8 -19 -2 -14 -16 -14 -13 -13
-8 -19 -2 -14 -16 -14 -13 -13
-8 -18 -2 -15 -17 -14 -13 -13
-8 -18 -2 -16 -17 -14 -13 -13
-8 -18 -2 -16 -17 -14 -13 -13
-8 -17 -3 -17 -18 -14 -13 -12
-8 -18 -3 -17 -18 -14 -14 -12
-8 -19 -2 -16 -18 -15 -15 -13
-8 -19 -2 -16 -18 -16 -15 -13
-8 -20 -2 -16 -18 -16 -16 -13
-9 -21 0 -15 -18 -17 -17 -14
-9 -21 0 -15 -18 -17 -17 -14
-9 -21 -2 -16 -19 -17 -17 -14
-9 -21 -2 -16 -19 -17 -17 -14
-9 -21 -2 -16 -19 -17 -17 -14
-10 -21 -3 -17 -20 -17 -16 -14
-10 -21 -3 -17 -20 -17 -16 -14
-10 -22 -2 -16 -20 -17 -16 -15
-10 -22 0 -15 -20 -17 -16 -16
-10 -22 0 -15 -20 -17 -16 -16
-10 -23 1 -14 -19 -17 -17 -17
-10 -23 1 -14 -19 -17 -17 -17
-10 -23 0 -15 -19 -18 -17 -17
-10 -23 0 -15 -19 -18 -17 -17
-10 -23 0 -15 -19 -18 -17 -17
-10 -22 -2 -14 -17 -19 -18 -17
-8 -22 0 -10 -15 -17 -18 -17
-7 -22 1 -6 -12 -16 -18 -17
-6 -22 2 -2 -9 -15 -18 -17
-4 -22 3 3 -7 -13 -18 -17
0 -21 7 13 4 -5 -13 -15
4 -16 15 29 20 9 0 -9
9 -11 22 46 35 22 11 -2
13 -6 29 62 52 35 23 5
17 0 36 78 68 49 35 11
26 13 38 88 89 72 57 26
40 32 33 90 112 104 89 49
54 53 28 93 136 135 119 71
67 72 24 95 159 167 150 93
80 92 19 97 183 198 181 115
89 112 5 78 186 216 202 136
93 132 -17 37 167 220 216 155
96 151 -39 -4 148 225 228 175
99 171 -62 -45 130 229 241 194
103 190 -83 -85 110 233 254 213
92 190 -98 -122 75 211 238 209
66 170 -106 -156 26 160 194 181
39 149 -113 -190 -23 110 150 152
13 128 -121 -224 -73 60 106 123
-13 107 -129 -258 -122 10 62 96
-30 88 -131 -271 -153 -27 26 70
-40 70 -126 -264 -166 -52 -3 46
-50 52 -120 -257 -179 -76 -30 22
-60 33 -115 -251 -192 -102 -59 -2
-69 15 -110 -243 -204 -127 -88 -25
-72 5 -103 -228 -202 -134 -99 -37
-66 3 -94 -204 -183 -123 -92 -38
-60 0 -85 -181 -164 -112 -85 -39
-55 -4 -76 -157 -145 -102 -78 -39
-49 -6 -67 -134 -127 -92 -71 -40
-44 -8 -58 -113 -109 -81 -64 -40
-38 -8 -49 -96 -95 -71 -57 -36
-33 -8 -38 -78 -79 -61 -50 -33
-28 -8 -29 -62 -65 -51 -43 -30
-23 -8 -20 -45 -51 -40 -35 -26
-20 -9 -14 -33 -40 -34 -30 -24
-19 -9 -12 -29 -36 -32 -28 -23
-18 -9 -10 -24 -32 -29 -26 -22
-17 -9 -8 -20 -28 -26 -24 -22
-16 -9 -6 -16 -24 -24 -22 -21
-15 -8 -5 -12 -22 -22 -21 -20
-14 -9 -4 -10 -20 -22 -21 -20
-14 -10 -3 -8 -19 -22 -21 -20
-13 -12 0 -6 -17 -22 -21 -20
-12 -13 1 -4 -15 -22 -21 -20
-11 -14 2 -2 -14 -21 -22 -20
-11 -14 2 0 -13 -19 -21 -20
-10 -14 2 1 -13 -18 -20 -20
-9 -13 3 2 -12 -17 -19 -19
-9 -13 3 3 -11 -15 -18 -19
-8 -12 4 4 -10 -14 -17 -18
-8 -12 4 5 -9 -14 -17 -18
-8 -12 4 5 -9 -14 -17 -18
-8 -12 4 6 -8 -14 -17 -18
-8 -12 4 7 -7 -14 -17 -18
-7 -12 5 8 -6 -15 -16 -18
-7 -12 5 8 -6 -15 -16 -18
-7 -11 5 8 -6 -15 -16 -18
-6 -10 4 9 -5 -14 -16 -18
-6 -10 4 9 -5 -14 -16 -18
-5 -9 3 10 -4 -13 -16 -18
-5 -9 3 10 -4 -13 -16 -18
-5 -9 4 10 -3 -13 -16 -18
-5 -9 5 11 -2 -12 -15 -18
-5 -9 5 11 -2 -12 -15 -18
-4 -9 6 12 0 -11 -14 -18
-4 -9 6 12 0 -11 -14 -18
-4 -9 6 13 0 -10 -14 -17
-4 -9 6 14 1 -9 -13 -16
-4 -9 6 14 1 -9 -13 -16
-5 -9 5 15 2 -8 -12 -15
-4 -8 5 16 2 -8 -12 -15
-3 -8 5 17 2 -8 -12 -15
-2 -7 5 18 2 -7 -12 -15
0 -6 5 19 2 -7 -12 -15
1 -5 5 20 3 -6 -13 -16
1 -5 5 22 4 -5 -12 -15
1 -5 5 23 5 -5 -12 -14
1 -6 5 24 7 -4 -11 -13
1 -6 5 26 8 -3 -10 -12
0 -7 6 27 9 -2 -9 -11
1 -7 6 29 10 -2 -8 -11
1 -7 7 30 11 0 -8 -11
2 -7 8 31 13 1 -7 -10
3 -7 8 33 14 1 -6 -10
4 -6 9 34 15 2 -5 -9
4 -6 9 35 16 2 -5 -9
4 -6 9 36 17 2 -6 -9
4 -6 9 38 18 1 -7 -9
4 -6 9 39 19 1 -7 -9
5 -6 8 40 20 0 -8 -9
5 -6 8 43 21 0 -8 -9
5 -5 8 44 21 1 -8 -9
5 -4 8 46 22 2 -8 -9
5 -4 8 48 23 2 -8 -9
6 -3 8 49 24 3 -8 -8
6 -3 9 51 26 3 -7 -8
6 -3 10 53 27 3 -7 -8
7 -3 11 55 29 4 -6 -8
7 -3 12 57 31 4 -5 -8
8 -2 13 58 32 5 -4 -7
8 -2 13 58 32 5 -4 -7
9 -2 13 59 32 5 -4 -7
10 -2 13 60 32 5 -4 -6
10 -2 13 60 32 5 -4 -6
11 0 14 61 33 5 -4 -5
11 0 14 61 33 5 -4 -5
10 0 14 61 33 5 -4 -5
9 0 13 61 33 5 -3 -4
9 0 13 61 33 5 -3 -4
8 0 12 61 32 5 -2 -3
8 0 12 61 31 5 -2 -3
8 1 12 61 31 5 -2 -3
7 2 12 61 30 5 -3 -3
7 2 12 61 29 5 -3 -3
6 3 13 60 28 4 -4 -3
6 3 13 58 27 3 -4 -3
6 3 13 57 26 3 -4 -3
6 3 13 55 24 2 -5 -3
6 3 13 53 23 1 -5 -3
5 3 12 52 22 0 -6 -2
5 3 12 51 22 0 -6 -2
5 4 12 50 22 0 -6 -2
6 5 12 49 22 0 -6 -2
6 5 12 48 22 0 -6 -2
7 6 12 47 21 -2 -5 0
7 6 11 45 21 -2 -5 0
7 6 11 43 21 -2 -5 0
7 6 10 40 21 0 -4 0
7 6 9 39 21 0 -4 0
6 7 8 37 20 1 -3 1
6 7 8 36 20 1 -3 1
6 7 8 35 20 1 -3 1
6 7 8 34 20 1 -2 1
6 7 8 33 20 1 -2 1
6 7 8 32 20 2 0 1
5 7 8 29 19 2 0 1
5 7 8 27 18 2 0 1
4 7 8 25 16 2 0 1
3 7 8 23 15 2 0 1
2 7 7 21 14 1 0 1
2 7 7 20 14 1 0 1
2 6 7 19 13 1 0 1
2 5 7 17 12 1 0 1
2 5 7 16 12 1 0 1
1 4 6 15 11 2 -2 0
0 3 6 13 10 2 -2 0
0 2 6 11 9 2 -2 0
-2 0 5 9 7 2 -3 0
-3 -2 5 8 6 2 -3 0
-4 -3 4 6 5 1 -4 -2
-4 -3 4 6 4 -2 -6 -3
-4 -3 4 6 4 -3 -7 -4
-5 -3 4 5 3 -5 -9 -6
-5 -3 4 5 2 -7 -11 -7
-6 -3 5 4 1 -8 -12 -8
-6 -3 5 3 1 -8 -11 -8
-6 -3 5 3 1 -7 -11 -8
-6 -4 4 2 1 -6 -10 -8
-6 -4 4 1 1 -6 -9 -8
-6 -5 3 0 0 -5 -8 -8
-7 -6 3 0 0 -5 -8 -8
-7 -7 3 1 0 -6 -8 -8
-8 -8 3 2 0 -7 -9 -8
-9 -9 3 2 0 -7 -9 -8
-10 -10 4 3 0 -8 -10 -9
-10 -10 4 3 0 -8 -10 -9
-10 -10 4 3 0 -8 -10 -8
-10 -10 4 3 0 -7 -10 -7
-10 -10 4 3 0 -7 -10 -7
-9 -9 4 2 0 -6 -9 -6
-9 -9 4 2 0 -6 -9 -6
-9 -9 4 2 0 -6 -9 -6
-9 -8 4 2 0 -6 -9 -7
-9 -8 4 2 0 -6 -9 -7
-9 -7 3 1 0 -7 -10 -8
-9 -7 3 1 0 -7 -10 -8
-9 -7 3 1 1 -6 -10 -8
-9 -7 3 2 2 -5 -9 -8
-9 -7 3 2 2 -5 -9 -8
-8 -8 4 3 3 -4 -8 -7
-8 -8 4 3 3 -4 -8 -7
-8 -8 4 3 3 -4 -8 -7
-8 -8 5 3 3 -4 -8 -7
-8 -8 5 3 3 -4 -8 -7
-7 -7 6 3 2 -5 -9 -8
-7 -7 6 3 2 -5 -9 -8
-7 -7 6 3 2 -5 -8 -8
-8 -8 6 3 2 -4 -7 -8
-8 -8 6 3 2 -4 -7 -8
-9 -9 6 2 2 -3 -6 -9
-9 -9 6 2 2 -3 -6 -9
-9 -8 6 2 2 -4 -6 -9
-8 -7 6 2 2 -5 -7 -8
-8 -7 6 2 2 -5 -7 -8
-7 -6 6 1 1 -6 -8 -7
-7 -4 7 1 2 -5 -7 -6
-7 -2 7 2 3 -3 -5 -5
-7 1 8 3 5 -2 -4 -4
-7 2 9 3 6 1 -2 -3
-7 4 10 4 7 2 0 -2
-6 5 11 4 7 2 0 -2
-6 7 12 5 7 3 0 -2
-5 8 14 6 7 4 0 -2
-4 10 15 6 7 4 0 -2
-3 11 16 7 8 5 0 -2
-3 11 16 7 8 5 0 0
-3 11 16 7 7 5 1 0
-3 12 16 7 6 5 2 1
-3 12 16 7 6 5 2 2
-3 13 17 6 5 5 3 3
-3 15 16 5 5 5 3 3
-2 18 15 5 5 6 4 3
0 20 14 4 5 7 5 3
0 22 13 3 5 7 5 3
1 24 11 2 5 8 6 4
1 24 8 -2 3 7 5 4
1 23 5 -4 1 5 4 4
1 22 2 -7 -2 4 3 4
1 22 -2 -9 -3 2 2 4
2 21 -4 -11 -5 1 1 4
2 20 -4 -11 -6 1 1 4
2 19 -4 -11 -7 1 1 4
2 18 -3 -11 -8 0 1 4
2 17 -3 -11 -9 0 1 4
1 16 -2 -12 -10 -2 0 4
1 16 -3 -12 -10 -2 0 4
1 16 -3 -12 -10 -2 0 4
2 16 -4 -13 -10 -2 0 4
2 16 -5 -13 -10 -2 0 4
3 14 -6 -14 -9 0 0 4
3 11 -5 -13 -8 0 0 3
3 8 -4 -11 -8 0 0 2
4 5 -2 -10 -7 0 -2 1
4 2 0 -8 -6 0 -2 0
5 -2 1 -7 -5 -2 -3 -2
3 -2 1 -8 -6 -3 -3 -3
2 -3 1 -8 -6 -4 -3 -3
0 -4 1 -9 -7 -5 -3 -4
-2 -4 1 -10 -8 -6 -3 -5
-4 -5 0 -11 -9 -7 -3 -6
-5 -7 0 -12 -11 -9 -6 -7
-5 -10 -2 -13 -12 -12 -9 -8
-6 -12 -3 -14 -14 -14 -11 -10
-7 -14 -3 -15 -15 -16 -14 -11
-8 -16 -4 -16 -17 -18 -16 -12
-8 -16 -4 -16 -17 -18 -16 -12
-8 -17 -4 -16 -17 -18 -16 -12
-8 -18 -4 -16 -17 -18 -16 -12
-8 -18 -4 -16 -17 -18 -16 -12
-7 -19 -3 -15 -16 -17 -15 -13
-7 -19 -3 -15 -16 -17 -15 -13
-7 -19 -3 -15 -16 -17 -15 -13
-7 -19 -3 -15 -16 -17 -15 -13
-7 -19 -3 -15 -16 -17 -15 -13
-8 -20 -2 -16 -16 -17 -16 -14
-8 -20 -2 -16 -16 -17 -16 -14
-8 -21 -2 -16 -16 -17 -16 -14
-8 -21 -2 -15 -16 -18 -16 -14
-8 -22 -2 -15 -16 -18 -16 -14
-8 -23 -2 -14 -16 -19 -16 -14
-8 -23 -2 -14 -16 -19 -16 -14
-8 -23 -2 -14 -16 -19 -16 -14
-8 -22 -2 -14 -16 -19 -17 -15
-8 -22 -2 -14 -16 -19 -17 -15
-9 -21 0 -13 -16 -19 -18 -16
-9 -22 0 -13 -16 -19 -18 -16
-9 -23 0 -13 -16 -19 -18 -16
-9 -24 0 -13 -16 -18 -18 -16
-9 -25 0 -13 -16 -18 -18 -16
-10 -26 -2 -12 -14 -17 -17 -17
-8 -27 1 -6 -11 -16 -17 -17
-6 -28 2 0 -8 -15 -17 -17
-4 -29 4 5 -4 -14 -17 -17
-2 -30 5 11 0 -13 -17 -17
2 -30 9 20 8 -7 -12 -16
7 -24 15 36 26 10 3 -8
12 -18 22 53 46 26 18 1
17 -12 29 69 64 44 32 8
22 -6 36 86 82 60 48 16
29 6 39 98 102 82 68 29
40 29 32 94 123 116 102 55
53 52 24 91 145 150 136 79
64 75 17 88 167 184 170 105
76 98 10 85 188 218 203 130
85 118 -3 68 196 241 229 152
85 135 -26 23 170 240 237 165
85 150 -49 -22 143 240 245 180
85 165 -71 -67 116 239 254 194
85 182 -95 -113 91 238 262 209
78 186 -112 -152 57 221 254 210
53 161 -115 -180 7 164 202 177
27 137 -118 -207 -44 107 151 144
3 112 -122 -234 -93 51 100 111
-23 88 -126 -262 -143 -7 50 78
-43 66 -129 -278 -180 -52 7 50
-49 50 -124 -266 -187 -71 -17 28
-55 34 -121 -255 -194 -91 -39 8
-61 18 -118 -242 -200 -110 -63 -13
-66 3 -115 -231 -207 -130 -87 -33
-70 -10 -109 -216 -206 -141 -101 -49
-63 -11 -98 -191 -185 -128 -93 -49
-56 -12 -86 -166 -162 -114 -85 -49
-49 -13 -74 -142 -140 -101 -76 -48
-41 -15 -63 -117 -118 -89 -67 -48
-35 -16 -52 -96 -99 -76 -60 -46
-30 -16 -44 -80 -85 -67 -53 -43
-26 -16 -34 -65 -70 -58 -46 -38
-21 -16 -26 -50 -57 -49 -38 -34
-16 -16 -18 -33 -43 -39 -31 -30
-12 -17 -11 -22 -32 -32 -26 -27
-12 -17 -9 -18 -29 -30 -25 -27
-12 -17 -8 -15 -26 -28 -24 -26
-11 -17 -6 -11 -23 -26 -23 -26
-11 -17 -5 -8 -20 -24 -21 -25
-10 -18 -3 -5 -17 -22 -20 -24
-9 -18 -2 -2 -15 -21 -20 -24
-8 -19 1 1 -13 -20 -19 -24
-7 -19 2 3 -12 -19 -19 -23
-6 -20 3 6 -10 -17 -18 -23
-5 -21 5 8 -8 -16 -17 -22
-5 -21 5 9 -8 -16 -17 -22
-5 -21 5 10 -7 -16 -16 -22
-5 -21 6 11 -7 -16 -16 -21
-5 -21 6 12 -6 -16 -15 -21
-4 -20 7 13 -5 -16 -14 -20
-4 -20 7 14 -4 -16 -14 -20
-4 -20 7 14 -3 -15 -14 -20
-4 -20 7 15 -2 -15 -14 -20
-4 -20 7 16 0 -14 -14 -20
-3 -21 8 17 1 -13 -14 -21
-2 -21 8 17 1 -13 -14 -21
-2 -21 8 17 1 -12 -13 -21
0 -21 8 18 1 -12 -13 -20
1 -21 8 18 1 -11 -12 -20
2 -21 9 19 2 -10 -11 -19
2 -21 9 19 2 -10 -11 -19
2 -21 9 20 2 -10 -11 -19
2 -20 9 20 3 -10 -11 -19
2 -20 9 21 3 -10 -11 -19
2 -19 8 22 4 -10 -11 -18
2 -19 8 23 5 -9 -10 -18
2 -19 8 24 6 -8 -10 -18
2 -18 8 25 7 -7 -9 -17
2 -18 8 26 9 -5 -8 -17
1 -17 8 27 10 -4 -7 -16
1 -17 9 28 11 -4 -7 -16
1 -18 9 29 12 -3 -7 -16
2 -18 10 30 13 -3 -7 -16
2 -19 11 31 14 -2 -7 -16
3 -20 12 32 15 0 -6 -17
3 -20 12 33 16 0 -5 -17
4 -19 12 34 16 1 -5 -17
4 -19 12 35 17 1 -4 -17
5 -18 12 36 18 2 -3 -17
6 -17 11 37 19 3 -2 -16
6 -17 11 38 20 3 -2 -16
6 -17 11 39 21 3 -2 -16
5 -17 11 40 22 3 -2 -16
5 -17 11 43 23 3 -2 -16
4 -17 12 44 24 3 -2 -15
4 -17 12 45 24 3 -2 -15
5 -16 12 47 25 3 0 -14
6 -15 13 49 26 3 1 -14
7 -14 13 50 27 3 2 -13
8 -13 14 52 28 4 3 -12
8 -13 14 54 29 4 3 -12
8 -12 15 56 31 5 3 -12
8 -12 16 58 33 6 3 -13
8 -11 17 60 34 7 3 -13
9 -10 18 62 36 8 3 -14
9 -10 18 63 36 8 3 -14
9 -10 18 65 37 8 3 -13
10 -10 18 66 37 8 3 -13
10 -10 18 67 38 8 3 -12
11 -9 18 69 39 9 4 -11
11 -9 18 70 39 9 4 -11
12 -8 18 71 40 9 4 -10
12 -8 19 72 40 9 4 -10
13 -7 19 73 42 9 4 -9
14 -6 20 74 43 10 3 -8
14 -6 20 74 43 10 3 -8
14 -5 20 74 43 10 3 -8
14 -5 20 73 43 10 4 -8
14 -4 20 73 43 10 4 -8
13 -3 20 72 42 10 5 -8
13 -3 20 72 40 10 5 -8
13 -3 20 71 39 9 4 -8
13 -2 20 71 38 9 4 -8
13 -2 20 70 37 8 3 -8
12 0 21 69 36 7 2 -8
12 0 21 68 35 7 2 -8
11 1 21 67 34 6 2 -8
11 1 21 66 33 5 1 -8
10 2 21 64 32 4 1 -8
9 3 20 63 31 3 0 -7
9 3 20 61 30 3 0 -7
9 3 19 60 29 3 0 -7
9 3 19 58 28 3 1 -7
9 3 18 56 27 3 1 -7
9 3 17 54 26 4 2 -7
9 3 17 53 26 4 2 -7
9 3 17 51 26 4 2 -6
9 4 17 50 26 4 2 -5
9 4 17 49 26 4 2 -4
8 5 18 47 26 5 3 -3
8 5 18 45 26 5 3 -3
8 5 17 44 25 5 4 -3
7 5 17 42 25 6 4 -3
7 5 16 39 24 6 5 -3
6 4 15 37 23 7 6 -3
6 4 15 35 23 7 6 -3
5 4 15 34 22 7 6 -2
5 3 14 32 21 7 6 0
4 3 14 30 20 7 6 1
3 2 13 28 19 8 7 2
3 2 13 26 18 8 7 1
2 1 13 25 16 8 7 0
1 0 13 23 15 8 6 -2
0 -2 13 21 14 8 6 -4
-2 -3 12 19 12 7 5 -5
-2 -3 12 18 11 6 4 -5
-2 -3 12 16 9 5 3 -5
-3 -3 11 15 8 4 2 -6
-3 -3 11 14 7 3 1 -6
-4 -3 10 12 5 2 0 -7
-4 -4 10 12 5 2 0 -7
-4 -5 10 11 4 2 0 -7
-4 -6 10 11 4 1 0 -7
-4 -8 10 10 3 1 0 -7
-4 -9 10 9 2 0 -2 -8
-4 -9 10 9 2 0 -2 -8
-4 -9 10 8 2 0 -2 -8
-5 -8 10 8 2 -2 -3 -9
-5 -8 10 7 2 -2 -3 -9
-6 -7 9 6 1 -3 -4 -10
-6 -7 9 6 1 -3 -4 -10
-6 -7 9 6 1 -3 -4 -10
-6 -8 9 6 1 -3 -4 -10
-6 -8 9 6 1 -3 -4 -10
-6 -9 8 6 1 -4 -3 -11
-6 -9 8 6 1 -4 -3 -10
-6 -9 8 6 1 -4 -3 -9
-6 -9 8 6 1 -4 -3 -8
-6 -9 8 6 1 -4 -3 -6
-7 -8 8 5 0 -5 -4 -5
-7 -8 8 5 0 -5 -4 -5
-7 -8 8 5 0 -5 -4 -5
-7 -8 8 5 0 -5 -4 -5
-7 -8 8 5 0 -5 -4 -5
-8 -9 9 6 1 -4 -4 -6
-8 -9 9 6 1 -4 -4 -6
-7 -8 9 6 1 -4 -4 -6
-7 -7 9 6 1 -4 -3 -6
-6 -6 9 6 1 -4 -3 -6
-5 -5 8 5 2 -3 -2 -7
-5 -5 8 5 2 -3 -2 -7
-5 -5 8 5 2 -3 -2 -7
-6 -5 8 5 2 -3 -2 -8
-6 -5 8 5 2 -3 -2 -8
-7 -5 8 6 3 -4 -2 -9
-7 -5 8 6 3 -4 -2 -9
-7 -5 8 6 2 -4 -2 -9
-7 -5 8 5 2 -4 -2 -8
-7 -5 8 5 1 -4 -2 -8
-7 -6 8 4 0 -4 -3 -7
-7 -6 8 4 0 -4 -3 -7
-7 -6 8 4 0 -4 -3 -7
-7 -6 8 4 1 -4 -3 -7
-7 -6 8 4 1 -4 -3 -7
-7 -7 8 4 2 -3 -2 -8
-7 -6 8 4 2 -3 0 -8
-7 -4 9 4 3 -3 1 -7
-7 -3 10 4 3 -2 2 -6
-7 -2 11 4 4 -2 3 -5
-7 1 12 3 5 0 4 -4
-7 1 13 3 5 1 4 -4
-7 2 14 4 6 3 5 -4
-7 3 15 4 7 4 5 -4
-7 4 16 5 8 5 6 -4
-6 5 17 6 9 7 7 -3
-6 5 17 6 9 7 7 -3
-6 6 17 6 9 7 7 -2
-6 6 16 6 9 7 6 0
-6 7 16 6 9 7 6 1
-7 8 15 6 9 6 5 2
-6 10 15 6 9 6 5 2
-5 12 15 6 9 7 6 2
-4 14 15 5 9 7 7 2
-3 17 15 5 9 8 8 2
0 19 14 4 10 9 9 3
0 19 12 2 9 9 9 3
0 20 9 0 7 8 9 4
0 20 6 -3 5 8 9 5
0 21 4 -6 4 7 9 6
1 22 1 -8 2 6 8 7
1 22 1 -8 1 5 7 7
1 21 0 -9 0 4 6 6
1 20 -2 -10 -2 3 5 6
1 19 -3 -11 -3 2 4 5
1 18 -4 -12 -5 0 3 4
1 18 -4 -12 -5 0 3 4
1 18 -4 -13 -6 0 3 4
0 17 -4 -14 -6 0 3 4
0 17 -4 -15 -7 0 3 4
-2 16 -4 -16 -8 0 3 5
-2 14 -4 -15 -7 0 3 5
0 12 -3 -13 -6 1 3 5
1 10 -3 -11 -5 1 4 5
2 7 -2 -10 -4 2 4 5
3 5 0 -8 -2 3 5 4
3 4 0 -8 -2 3 4 4
2 2 0 -8 -2 3 3 3
2 1 1 -8 -2 2 2 2
1 -2 1 -8 -2 2 1 1
0 -4 2 -9 -3 1 -2 0
-2 -6 2 -10 -5 -2 -4 -3
-3 -9 1 -11 -6 -5 -6 -5
-5 -11 0 -13 -8 -8 -8 -7
-6 -13 -2 -14 -10 -10 -11 -9
-8 -16 -3 -16 -12 -13 -13 -11
-8 -16 -3 -16 -12 -13 -13 -11
-8 -16 -3 -16 -13 -13 -13 -11
-8 -16 -4 -16 -14 -14 -13 -11
-8 -16 -4 -16 -15 -14 -13 -11
-8 -16 -5 -17 -16 -15 -14 -12
-8 -17 -5 -17 -16 -15 -14 -12
-8 -18 -5 -17 -16 -15 -14 -12
-8 -19 -4 -17 -16 -15 -14 -13
-8 -20 -4 -17 -16 -15 -14 -13
-8 -22 -3 -16 -15 -15 -15 -14
-8 -22 -3 -16 -15 -15 -15 -14
-8 -22 -3 -16 -15 -15 -15 -14
-9 -22 -3 -16 -15 -15 -16 -14
-9 -22 -3 -16 -15 -15 -16 -14
-10 -23 -2 -17 -16 -16 -17 -13
-10 -23 -2 -17 -16 -16 -17 -13
-10 -23 -2 -16 -16 -16 -17 -13
-10 -23 -2 -16 -16 -16 -17 -13
-10 -23 -2 -15 -16 -16 -17 -13
-11 -23 0 -14 -15 -15 -16 -14
-11 -23 0 -14 -15 -15 -16 -14
-11 -23 0 -14 -15 -15 -16 -14
-11 -23 0 -15 -15 -15 -16 -14
-11 -23 0 -15 -15 -15 -16 -14
-11 -24 0 -16 -15 -15 -16 -14
-11 -24 0 -14 -14 -15 -16 -14
-10 -25 0 -12 -13 -15 -16 -14
-10 -25 0 -10 -12 -14 -16 -14
-9 -26 0 -8 -11 -14 -16 -14
-8 -27 1 -5 -8 -13 -15 -14
-6 -25 8 9 5 -4 -9 -11
-4 -23 15 23 17 5 -2 -7
-2 -21 22 37 29 14 5 -4
1 -19 28 51 42 23 12 0
5 -15 35 64 55 33 20 5
17 1 34 72 80 63 49 24
29 15 33 80 106 94 76 43
43 30 32 89 132 123 105 62
55 46 31 96 157 154 133 80
67 62 29 102 182 183 161 100
76 88 9 71 181 201 185 125
85 113 -13 42 180 220 210 149
93 139 -33 11 179 238 234 173
102 164 -54 -19 178 257 259 197
109 187 -74 -51 172 271 280 219
90 174 -88 -92 120 229 246 201
69 160 -101 -133 68 186 212 183
50 147 -115 -174 17 144 178 165
29 134 -129 -215 -35 102 144 148
10 119 -142 -254 -86 60 110 129
-7 97 -137 -257 -112 21 70 100
-24 75 -133 -260 -140 -18 30 70
-41 54 -128 -263 -166 -57 -10 40
-58 31 -122 -267 -194 -96 -50 11
-74 11 -117 -269 -219 -133 -88 -17
-69 6 -109 -244 -201 -126 -86 -20
-63 1 -101 -220 -183 -117 -83 -24
-58 -5 -94 -195 -165 -110 -80 -27
-53 -11 -86 -172 -148 -102 -78 -30
-47 -16 -77 -147 -130 -95 -75 -34
-41 -16 -66 -127 -113 -83 -67 -32
-35 -16 -54 -106 -96 -71 -59 -29
-29 -16 -43 -86 -78 -60 -51 -26
-24 -16 -31 -64 -61 -49 -43 -23
-18 -16 -20 -45 -45 -37 -34 -20
-17 -16 -17 -39 -39 -34 -32 -19
-15 -16 -14 -34 -34 -30 -30 -18
-14 -16 -11 -29 -29 -27 -27 -17
