I II V1 V2 V3 V4 V5 V6
12 27 14 54 11 6 20 4
13 27 14 54 11 6 20 4
14 28 14 55 12 7 20 4
15 29 14 55 12 8 20 4
16 30 14 56 13 9 20 4
17 30 14 56 13 9 20 4
19 31 15 57 14 10 21 5
20 31 14 57 14 10 21 5
21 32 14 57 14 10 21 5
22 32 13 57 14 10 21 5
23 32 13 57 14 10 21 5
24 33 12 58 15 11 21 6
24 33 11 58 15 11 21 7
24 33 11 58 15 11 21 7
24 33 10 58 15 11 21 8
24 33 10 58 15 11 21 8
24 33 9 57 14 12 21 9
23 32 9 56 13 11 21 9
22 31 8 55 12 10 21 9
21 30 8 54 11 9 21 9
20 30 8 53 10 8 21 9
20 30 7 52 9 7 20 8
22 32 7 52 8 7 19 8
24 33 7 52 8 6 19 8
26 35 7 52 7 6 18 8
28 36 7 52 7 6 18 8
29 37 8 51 6 5 17 8
29 37 7 49 6 4 17 8
29 37 7 48 5 4 16 8
29 37 6 46 5 3 16 8
29 37 6 45 5 3 16 8
28 36 5 43 3 1 14 7
26 35 4 42 2 -2 12 6
24 34 3 40 1 -4 10 5
22 33 2 39 0 -6 8 4
21 32 2 38 -2 -7 6 3
20 31 1 36 -4 -9 5 2
19 31 1 34 -5 -10 4 1
18 31 1 33 -7 -12 3 1
17 31 1 31 -8 -13 2 0
17 31 1 30 -9 -14 2 0
16 32 0 29 -10 -15 1 -2
15 32 1 29 -10 -15 0 -3
15 32 1 28 -10 -15 -2 -4
14 32 2 28 -10 -15 -3 -5
14 32 2 28 -10 -15 -3 -5
13 30 3 27 -10 -16 -4 -6
13 28 4 28 -9 -15 -4 -6
12 27 5 29 -8 -14 -3 -6
12 25 6 30 -7 -13 -3 -6
12 24 6 30 -6 -12 -3 -6
11 23 7 31 -5 -11 -2 -5
10 23 8 31 -5 -11 -2 -6
9 23 9 30 -5 -11 -2 -6
8 23 10 30 -5 -11 -2 -7
8 23 11 30 -5 -11 -2 -7
6 23 12 29 -6 -10 -3 -8
4 22 12 29 -5 -9 -3 -8
2 20 12 29 -4 -8 -2 -8
0 19 12 29 -3 -7 -2 -8
-3 18 12 29 -2 -7 -2 -8
-3 17 13 29 0 -6 0 -9
0 18 13 30 0 -5 0 -10
2 18 14 30 1 -5 0 -10
4 19 14 31 1 -4 0 -11
5 19 14 31 1 -4 0 -11
5 20 15 32 2 -3 -2 -12
3 20 15 31 2 -3 -2 -12
2 20 15 30 2 -2 0 -12
0 20 15 29 2 -2 0 -12
-2 20 15 29 2 -2 0 -12
-3 20 14 28 2 0 1 -11
-3 18 14 28 2 0 1 -11
-3 16 14 28 2 0 0 -11
-3 14 14 28 2 0 0 -11
-3 13 14 28 2 0 0 -11
-5 12 14 29 2 -2 -2 -11
-7 11 14 28 1 -2 -2 -11
-8 11 13 28 0 -3 -2 -12
-10 10 13 27 -2 -3 -2 -12
-11 10 13 27 -2 -3 -2 -12
-11 9 12 26 -3 -4 -3 -13
-9 10 12 26 -3 -4 -3 -13
-8 11 12 27 -3 -3 -2 -12
-6 12 12 27 -3 -3 -2 -12
-5 12 12 27 -3 -3 -2 -12
-4 13 13 28 -2 -2 0 -11
-5 12 13 27 -2 -2 0 -11
-5 11 13 27 -2 -2 0 -11
-6 10 13 26 -2 -2 0 -11
-6 10 13 26 -2 -2 0 -11
-7 9 12 25 -2 0 1 -10
-7 9 12 26 -2 0 1 -11
-6 10 13 26 -2 0 0 -11
-6 10 13 27 -2 0 0 -12
-6 10 13 27 -2 0 0 -12
-4 11 14 28 0 0 -2 -12
-3 11 14 28 0 1 -2 -11
0 11 14 28 1 2 0 -9
1 11 14 28 1 3 0 -8
2 11 14 28 1 3 0 -7
3 11 13 28 2 4 1 -6
2 11 13 28 2 4 1 -7
1 11 13 28 2 4 1 -7
0 11 13 28 2 4 1 -8
0 11 13 28 2 4 1 -8
-3 11 13 28 3 5 1 -9
-4 10 13 28 3 5 2 -9
-5 10 12 28 3 6 3 -8
-6 9 12 28 3 6 4 -8
-7 9 12 28 3 6 4 -8
-8 8 11 27 4 7 5 -7
-7 8 11 27 4 7 5 -7
-6 7 12 28 5 8 5 -7
-5 7 12 28 5 8 5 -7
-5 7 12 28 5 8 5 -7
-4 6 13 29 6 9 5 -6
-4 7 12 29 6 9 6 -5
-4 8 12 29 6 10 7 -5
-4 9 11 29 6 10 8 -4
-4 10 11 29 6 10 8 -4
-5 11 10 28 7 11 9 -3
-6 10 11 28 7 11 9 -3
-6 10 12 28 7 11 9 -3
-7 9 13 28 7 11 9 -3
-7 9 13 28 7 11 9 -3
-8 8 14 28 7 10 9 -3
-8 8 13 28 7 10 9 -3
-7 8 13 27 7 10 9 -3
-7 8 12 27 7 10 9 -3
-7 8 12 27 7 10 9 -3
-6 9 11 26 7 11 8 -3
-7 8 11 25 6 10 7 -4
-8 7 11 24 5 9 6 -5
-9 6 11 23 4 8 5 -6
-9 5 11 22 4 8 4 -7
-10 4 10 21 3 7 3 -8
-10 4 10 21 2 6 3 -8
-10 4 9 21 1 6 4 -8
-10 4 9 21 0 5 4 -8
-10 4 9 21 0 5 4 -8
-10 3 8 20 -2 4 5 -8
-7 4 9 20 0 5 5 -8
-5 5 9 20 0 5 5 -8
-3 6 10 20 1 6 5 -8
0 7 10 20 1 6 5 -8
-2 7 11 20 2 7 4 -7
-4 5 11 19 2 7 3 -8
-6 3 10 18 1 6 3 -8
-9 2 10 17 1 6 2 -9
-11 0 10 17 1 6 2 -9
-12 -2 9 16 0 5 1 -10
-12 -2 9 16 -2 5 1 -10
-11 -2 8 16 -2 5 1 -10
-11 -2 8 16 -3 5 1 -10
-11 -2 8 16 -3 5 1 -10
-10 -2 7 15 -4 4 0 -9
-9 -2 7 15 -4 4 0 -9
-9 0 7 15 -4 4 0 -10
-8 0 7 15 -4 4 0 -10
-8 0 7 15 -4 4 0 -10
-7 1 8 13 -3 3 0 -11
-7 0 8 12 -4 2 -2 -11
-8 0 7 11 -5 1 -2 -11
-8 -2 7 10 -6 0 -3 -11
-8 -2 7 9 -6 0 -3 -11
-9 -3 6 8 -7 -2 -4 -12
-9 -3 6 9 -7 0 -4 -11
-10 -3 6 9 -6 0 -4 -10
-10 -3 6 10 -6 1 -4 -9
-10 -3 6 10 -6 1 -4 -9
-11 -3 5 11 -5 2 -3 -8
-10 -2 6 11 -5 2 -3 -8
-10 0 6 11 -5 3 -2 -9
-9 1 7 11 -5 3 -2 -9
-9 1 7 11 -5 3 -2 -9
-9 0 7 10 -6 4 0 -10
-12 -3 6 9 -6 3 -2 -10
-14 -6 5 8 -6 3 -2 -10
-16 -9 4 7 -6 2 -3 -10
-18 -11 3 6 -6 2 -3 -10
-19 -12 2 5 -7 1 -4 -11
-19 -12 2 5 -7 0 -5 -11
-19 -12 2 5 -8 0 -5 -12
-19 -12 2 5 -8 -2 -6 -12
-19 -12 2 5 -8 -2 -6 -12
-17 -10 2 4 -9 -3 -7 -13
-16 -9 2 4 -8 -2 -7 -13
-14 -8 3 5 -8 -2 -6 -13
-12 -6 3 5 -7 0 -6 -13
-11 -5 3 5 -7 0 -6 -13
-9 -4 4 6 -7 1 -5 -12
-8 -4 4 6 -8 0 -5 -12
-7 -4 3 5 -9 -2 -6 -13
-5 -4 3 5 -10 -3 -6 -13
-4 -4 3 5 -11 -3 -6 -13
-5 -4 2 4 -12 -4 -7 -14
-7 -5 2 4 -11 -4 -7 -14
-9 -6 3 4 -10 -3 -7 -13
-12 -7 3 4 -9 -3 -7 -13
-14 -8 3 4 -9 -3 -7 -13
-15 -9 4 5 -8 -2 -7 -12
-14 -8 3 4 -8 -2 -7 -13
-13 -8 3 3 -8 -2 -6 -14
-12 -7 2 2 -8 -2 -6 -15
-12 -7 2 1 -8 -2 -6 -15
-11 -6 1 0 -7 0 -5 -16
-11 -6 1 1 -7 0 -5 -15
-11 -6 1 1 -7 0 -5 -15
-11 -6 1 2 -7 0 -5 -14
-11 -6 1 2 -7 0 -5 -14
-12 -5 2 3 -7 0 -6 -13
-12 -6 2 2 -7 0 -6 -14
-12 -6 2 2 -8 -2 -7 -14
-12 -7 2 1 -8 -2 -7 -15
-12 -7 2 1 -8 -2 -7 -15
-13 -8 2 0 -9 -3 -8 -16
-13 -8 2 0 -9 -2 -7 -16
-13 -8 1 -2 -9 -2 -7 -15
-13 -8 1 -2 -9 0 -6 -15
-13 -8 1 -2 -9 0 -6 -15
-14 -9 0 -3 -8 1 -5 -14
-15 -10 0 -3 -8 0 -6 -15
-16 -10 0 -3 -9 0 -6 -15
-17 -11 0 -3 -9 -2 -7 -16
-17 -11 0 -3 -9 -2 -7 -16
-16 -9 1 -2 -9 -2 -5 -14
-12 -6 2 0 -6 1 0 -10
-8 -2 3 1 -4 3 4 -6
-5 3 4 3 -2 5 8 -2
0 7 5 4 1 7 12 3
0 7 6 5 2 8 12 4
-3 4 6 5 1 7 10 3
-5 2 6 5 0 6 8 3
-7 -2 6 5 -2 5 7 2
-9 -4 6 5 -2 5 5 2
-10 -4 5 4 -3 4 4 1
-9 -2 6 4 -3 4 5 1
-8 1 6 4 -2 4 6 1
-7 3 7 4 -2 4 7 1
-7 5 7 4 -2 4 7 1
-6 6 9 5 1 6 8 0
-6 6 11 7 3 7 9 1
-7 7 13 10 5 9 9 1
-7 7 14 12 6 11 10 2
-7 7 16 14 8 12 10 2
-8 8 15 14 9 13 11 3
-7 9 13 12 8 13 11 3
-6 10 10 10 8 13 11 4
-5 11 8 9 7 13 11 4
-5 12 5 7 7 13 11 4
-4 13 4 6 6 12 11 5
-4 13 2 5 6 12 12 6
-4 13 1 5 5 12 12 7
-4 13 0 4 5 12 13 8
-4 13 -2 4 5 12 13 9
-3 13 -3 2 3 11 13 9
-2 11 -4 1 2 9 11 8
0 10 -4 -2 0 7 9 7
2 9 -5 -4 -3 6 8 5
3 8 -5 -5 -4 4 6 4
3 6 -6 -6 -5 3 5 3
1 4 -7 -6 -5 3 5 4
-3 2 -8 -6 -5 3 6 4
-5 0 -9 -6 -5 3 6 5
-7 -3 -10 -6 -5 3 6 5
-8 -4 -11 -7 -6 4 7 6
-7 -2 -11 -7 -6 3 6 5
-6 0 -11 -7 -6 3 5 4
-5 1 -11 -7 -6 2 4 3
-5 2 -11 -7 -6 2 4 3
-4 3 -11 -7 -7 1 3 2
-3 3 -10 -8 -8 0 2 1
-2 3 -9 -9 -8 0 1 0
0 3 -8 -10 -9 -2 0 -2
0 3 -8 -11 -9 -2 0 -3
-3 1 -7 -12 -10 -3 -2 -4
-7 -4 -7 -12 -10 -4 -3 -5
-12 -7 -7 -13 -10 -4 -4 -6
-16 -11 -7 -13 -10 -5 -5 -7
-21 -15 -7 -13 -10 -5 -5 -8
-21 -16 -7 -14 -11 -6 -6 -9
-19 -15 -7 -14 -11 -6 -5 -10
-18 -15 -7 -13 -11 -6 -4 -10
-16 -14 -7 -13 -11 -6 -3 -11
-14 -14 -7 -13 -11 -6 -3 -11
-15 -15 -8 -12 -12 -6 -2 -12
-17 -17 -8 -13 -13 -7 0 -13
-20 -20 -8 -13 -14 -8 0 -13
-22 -22 -8 -14 -15 -9 1 -14
-25 -25 -8 -14 -15 -10 1 -14
-26 -26 -7 -14 -16 -11 2 -15
-25 -25 -5 -12 -14 -11 3 -15
-24 -25 -2 -11 -13 -11 4 -14
-23 -24 1 -9 -12 -11 5 -14
-23 -24 3 -7 -11 -11 6 -14
-22 -23 8 2 -3 -6 9 -13
-23 -25 14 11 7 1 11 -13
-24 -26 20 21 16 7 14 -12
-25 -27 26 31 25 13 17 -12
-26 -28 32 40 34 19 20 -12
-24 -28 40 60 52 37 36 1
-19 -26 50 81 72 59 58 17
-14 -23 59 103 93 81 79 32
-9 -21 68 125 112 104 101 48
-5 -19 76 146 133 126 122 64
10 -11 80 167 154 157 158 92
27 0 82 185 176 191 198 125
45 11 84 204 197 226 237 157
62 21 86 223 220 261 277 189
78 31 88 242 241 295 317 222
91 46 69 219 228 298 328 238
101 61 44 179 202 287 331 251
110 77 18 139 177 278 335 263
120 93 -9 100 150 269 337 275
131 109 -34 60 125 260 340 287
117 107 -56 2 69 195 282 253
95 98 -75 -63 4 111 204 201
72 89 -96 -127 -61 27 126 150
49 79 -115 -191 -127 -56 48 99
26 70 -136 -256 -191 -140 -31 48
15 57 -145 -272 -213 -168 -60 23
9 44 -151 -270 -219 -176 -72 7
2 29 -157 -267 -225 -185 -85 -9
-6 16 -164 -265 -231 -193 -97 -25
-13 2 -171 -263 -237 -201 -109 -40
-15 -5 -158 -240 -221 -188 -104 -44
-13 -8 -139 -211 -194 -166 -91 -40
-12 -12 -119 -181 -169 -144 -76 -37
-11 -15 -101 -150 -143 -121 -63 -34
-10 -19 -81 -120 -116 -99 -50 -31
-9 -19 -68 -101 -99 -85 -39 -27
-9 -17 -58 -86 -83 -71 -30 -22
-9 -15 -48 -70 -68 -59 -21 -17
-9 -13 -36 -56 -53 -47 -13 -13
-9 -11 -26 -40 -37 -34 -4 -8
-9 -10 -22 -34 -32 -29 1 -6
-10 -11 -19 -33 -29 -27 2 -5
-12 -11 -16 -31 -27 -25 3 -5
-13 -12 -14 -30 -25 -23 5 -4
-15 -12 -11 -28 -22 -21 6 -4
-16 -12 -10 -25 -20 -20 7 -3
-15 -11 -8 -22 -18 -19 7 -3
-15 -9 -7 -19 -16 -18 7 -3
-14 -8 -6 -16 -13 -18 7 -3
-14 -6 -5 -13 -11 -17 7 -3
-13 -5 -4 -12 -10 -16 8 -3
-13 -6 -4 -13 -10 -15 9 -3
-14 -7 -4 -14 -10 -14 10 -3
-14 -7 -4 -14 -10 -14 11 -3
-14 -8 -4 -15 -10 -13 12 -3
-15 -9 -3 -16 -10 -12 13 -2
-16 -10 -3 -15 -9 -12 12 -3
-17 -10 -3 -14 -9 -12 12 -4
-18 -11 -3 -14 -8 -12 11 -4
-19 -11 -3 -13 -8 -12 11 -5
-19 -12 -2 -12 -7 -12 10 -6
-18 -12 -2 -12 -6 -11 11 -6
-17 -12 -3 -12 -5 -11 11 -6
-15 -12 -3 -12 -5 -10 12 -6
-14 -12 -3 -12 -4 -10 12 -6
-13 -13 -4 -12 -3 -9 13 -5
-13 -13 -3 -12 -3 -9 13 -5
-13 -13 -2 -11 -3 -9 13 -5
-13 -13 0 -11 -3 -9 13 -5
-13 -13 1 -11 -3 -9 13 -5
-13 -14 2 -10 -3 -8 13 -5
-12 -13 2 -9 -3 -7 15 -3
-10 -12 2 -9 -3 -6 16 -2
-9 -11 2 -8 -3 -6 17 1
-7 -10 2 -8 -3 -5 18 2
-6 -9 2 -7 -2 -4 19 3
-6 -8 2 -6 0 -4 19 3
-7 -7 3 -5 1 -4 18 3
-7 -6 3 -5 1 -4 18 3
-7 -5 3 -4 2 -4 18 3
-8 -4 4 -3 3 -3 17 2
-8 -5 3 -4 3 -3 17 2
-8 -5 2 -4 2 -4 17 3
-8 -6 2 -5 2 -4 17 3
-8 -6 1 -5 2 -4 17 3
-8 -7 0 -6 1 -5 16 4
-8 -7 0 -6 2 -5 16 4
-8 -7 0 -5 2 -4 17 3
-8 -7 0 -5 3 -4 17 3
-8 -7 0 -5 3 -4 17 3
-7 -6 0 -4 4 -3 18 2
-7 -6 0 -4 4 -3 18 2
-8 -7 0 -4 4 -3 18 3
-8 -7 0 -4 4 -3 18 3
-8 -7 0 -4 4 -3 18 3
-9 -8 -2 -3 5 -2 19 4
-8 -7 -2 -3 5 -2 19 4
-7 -6 -2 -2 5 -2 18 4
-7 -6 -2 -2 5 -2 18 4
-6 -5 -2 -2 5 -2 18 4
-5 -4 -2 0 5 -3 17 3
-3 -4 -2 -2 5 -3 17 4
-2 -5 -2 -2 5 -3 18 5
1 -5 -2 -3 5 -3 18 5
2 -5 -2 -3 5 -3 18 6
3 -5 -3 -4 5 -2 19 7
3 -2 -3 -3 7 1 19 7
3 2 -3 -3 8 2 20 7
3 5 -3 -2 10 3 20 7
3 8 -3 -2 11 4 20 7
2 9 -4 0 12 5 21 7
3 9 -4 1 12 5 22 9
3 9 -4 2 12 5 22 10
4 9 -4 2 12 5 23 11
4 9 -4 3 12 5 23 12
5 9 -3 4 12 5 24 13
5 7 -3 4 12 4 23 12
4 5 -3 4 12 4 22 11
4 3 -3 4 12 3 22 10
4 1 -3 4 12 3 21 9
3 0 -2 5 11 2 20 8
4 1 -3 5 11 2 21 9
5 2 -4 4 11 3 22 10
6 3 -4 4 11 4 23 11
7 4 -5 4 11 4 24 12
9 6 -6 3 11 5 25 13
12 9 -6 5 12 7 27 15
15 11 -5 6 13 8 28 16
18 14 -4 8 14 10 30 18
21 17 -4 9 15 11 31 19
21 17 -4 10 16 12 32 20
20 15 -6 8 15 11 31 20
18 13 -8 7 14 10 30 20
16 10 -10 5 13 9 30 20
14 8 -12 4 12 8 29 20
13 7 -13 3 11 7 28 20
13 7 -13 3 11 6 27 19
13 7 -13 3 11 5 26 18
13 7 -13 3 11 4 25 17
13 7 -13 3 11 3 24 16
14 8 -12 2 10 2 23 15
15 10 -11 2 10 2 23 16
17 11 -10 3 11 3 24 18
19 13 -9 3 12 3 25 19
21 14 -8 3 12 3 25 20
22 15 -8 4 12 3 25 21
22 15 -9 3 11 2 24 19
23 15 -11 2 9 0 22 18
23 15 -12 1 7 -2 20 16
23 15 -14 0 5 -4 18 15
24 15 -15 -2 4 -5 17 14
24 17 -14 -2 4 -5 17 15
23 18 -13 -2 4 -6 17 16
23 20 -12 -2 4 -6 17 16
23 21 -11 -2 4 -6 17 17
21 21 -10 -4 3 -8 16 17
19 19 -11 -5 2 -10 14 15
17 17 -12 -7 0 -12 12 13
14 14 -13 -9 -3 -14 9 11
12 12 -14 -11 -5 -16 7 9
11 11 -15 -12 -6 -17 6 8
11 11 -14 -12 -6 -17 6 8
11 12 -13 -12 -6 -17 6 9
11 12 -13 -12 -6 -17 6 10
11 12 -12 -12 -6 -17 6 10
10 13 -11 -13 -6 -17 5 10
10 13 -11 -14 -7 -19 3 8
10 14 -12 -15 -8 -20 1 6
10 15 -12 -16 -8 -22 -2 4
10 15 -12 -17 -9 -23 -4 1
9 16 -13 -18 -10 -24 -5 0
9 16 -12 -18 -9 -23 -5 0
10 16 -11 -17 -8 -22 -4 1
10 16 -11 -17 -8 -21 -4 1
10 16 -10 -17 -7 -20 -4 1
10 16 -9 -16 -6 -19 -3 2
9 14 -9 -16 -6 -19 -3 1
7 12 -8 -16 -7 -20 -4 -2
5 10 -7 -16 -7 -20 -5 -3
3 8 -7 -16 -7 -20 -5 -4
2 7 -6 -15 -7 -21 -6 -5
0 7 -6 -15 -6 -19 -4 -4
-2 6 -5 -14 -4 -17 -3 -3
-4 6 -4 -13 -2 -16 0 -3
-5 6 -4 -13 1 -14 1 -2
-5 6 -3 -12 2 -13 2 0
-3 7 -3 -12 2 -12 2 0
0 9 -2 -12 3 -11 3 0
2 11 0 -12 4 -11 4 0
5 13 0 -12 4 -10 4 0
5 13 1 -13 5 -9 5 1
3 11 1 -13 4 -9 5 1
1 9 0 -13 3 -9 5 0
-2 7 -2 -13 2 -9 5 -2
-4 4 -2 -13 1 -9 5 -2
-5 3 -3 -14 0 -10 4 -3
-4 4 -3 -14 1 -10 4 -4
-3 5 -3 -15 2 -11 4 -5
-3 6 -3 -15 2 -12 4 -5
-2 7 -3 -15 3 -12 4 -6
0 8 -4 -16 4 -13 3 -7
-2 7 -4 -15 4 -12 3 -7
-3 6 -3 -14 4 -11 3 -6
-4 5 -2 -13 4 -10 3 -5
-5 4 -2 -12 4 -9 3 -5
-6 3 0 -11 3 -8 3 -4
-6 3 0 -11 3 -8 3 -4
-6 3 1 -11 3 -9 2 -5
-6 3 1 -11 3 -9 2 -6
-6 3 1 -11 3 -9 2 -6
-7 4 2 -12 2 -10 1 -7
-5 4 1 -12 2 -10 1 -7
-3 4 0 -13 2 -10 1 -7
-2 4 0 -13 2 -10 1 -7
1 4 -2 -13 2 -10 1 -7
2 4 -3 -14 1 -10 2 -6
0 3 -3 -14 1 -10 2 -6
-2 1 -3 -14 1 -10 1 -7
-4 -2 -3 -14 1 -10 0 -8
-5 -4 -3 -14 1 -10 0 -8
-6 -4 -2 -13 2 -11 -2 -9
-6 -2 -2 -11 3 -9 0 -8
-5 1 0 -10 5 -8 1 -7
-5 3 1 -8 6 -6 1 -6
-5 6 1 -7 7 -5 2 -5
-4 7 2 -6 8 -4 3 -4
-4 7 2 -6 8 -4 3 -4
-3 8 2 -7 7 -4 3 -4
-2 8 2 -8 7 -4 3 -4
-2 8 2 -8 7 -4 3 -4
0 9 1 -9 6 -5 3 -4
0 10 2 -8 7 -4 4 -3
1 11 4 -7 8 -3 5 -2
1 12 5 -6 9 -3 6 0
1 13 6 -5 10 -2 7 1
2 14 7 -4 11 0 8 2
0 13 7 -4 11 0 7 1
-3 11 6 -5 10 -2 6 -2
-4 10 5 -5 9 -3 5 -3
-6 9 5 -5 9 -3 4 -4
-6 8 4 -6 8 -4 3 -5
-4 9 4 -6 8 -4 5 -3
0 11 4 -6 8 -3 6 0
2 12 4 -6 8 -3 7 1
4 13 4 -6 8 -3 9 3
5 13 4 -7 8 -2 10 4
4 11 4 -7 8 -2 10 3
2 9 5 -6 8 -2 9 1
0 7 5 -6 8 -2 8 0
-3 4 5 -6 8 -2 8 -2
-4 3 5 -5 7 0 7 -3
-3 3 4 -6 6 -2 7 -3
-2 3 2 -8 4 -4 6 -4
0 3 0 -9 3 -5 6 -4
1 3 -3 -10 2 -6 6 -4
2 4 -3 -11 1 -7 5 -5
1 4 0 -10 3 -6 5 -5
0 5 2 -9 4 -5 4 -4
-2 6 4 -8 5 -4 4 -4
-3 6 6 -7 7 -3 4 -4
-4 7 7 -6 8 -2 3 -3
-4 7 6 -8 6 -3 3 -3
-3 7 5 -10 4 -5 2 -3
-3 7 5 -11 3 -6 2 -3
-3 7 4 -13 1 -7 2 -3
-2 7 3 -14 0 -8 1 -4
-3 7 3 -13 1 -8 1 -4
-4 7 4 -12 2 -7 1 -4
-4 7 5 -12 3 -6 1 -4
-5 7 5 -11 4 -6 1 -4
-5 8 6 -10 5 -5 0 -4
-3 8 6 -10 5 -4 2 -2
1 9 6 -9 5 -3 3 0
3 9 6 -9 5 -2 4 1
5 9 6 -9 5 0 6 3
7 10 7 -8 6 1 7 4
6 10 7 -8 6 0 5 2
4 9 7 -9 6 -3 3 1
3 9 7 -9 6 -4 2 0
2 9 7 -9 6 -5 0 -3
1 8 8 -10 5 -6 -2 -4
0 8 7 -11 5 -7 -3 -4
-2 7 6 -12 4 -9 -5 -5
-3 7 5 -13 3 -10 -6 -5
-4 7 4 -14 3 -11 -7 -5
-5 6 3 -15 2 -12 -8 -6
-4 6 3 -15 2 -12 -8 -6
-3 7 4 -14 2 -12 -8 -6
-2 7 4 -14 2 -12 -8 -6
0 7 4 -14 2 -12 -8 -6
1 8 5 -13 2 -11 -7 -7
1 8 5 -14 2 -11 -6 -7
0 8 5 -15 1 -10 -5 -6
-2 8 5 -15 0 -10 -5 -5
-2 8 5 -16 0 -10 -4 -5
-3 7 4 -17 -2 -9 -3 -4
-2 8 4 -17 -2 -9 -3 -4
1 9 4 -17 -3 -10 -4 -5
2 9 4 -17 -4 -11 -4 -5
3 10 4 -17 -4 -11 -4 -5
4 11 3 -17 -5 -11 -5 -6
3 10 3 -17 -5 -9 -5 -6
1 8 3 -18 -4 -6 -6 -6
0 7 3 -18 -3 -4 -6 -6
-2 6 3 -18 -3 -2 -6 -6
-3 5 2 -19 -2 1 -7 -7
-3 5 4 -19 -2 2 -7 -7
-3 5 5 -18 -2 4 -7 -7
-3 5 6 -17 -2 5 -7 -7
-3 5 8 -17 -2 6 -7 -7
-2 6 9 -16 0 7 -7 -6
-2 6 7 -17 -2 6 -7 -6
-2 6 6 -18 -4 4 -7 -6
-2 6 5 -19 -5 3 -7 -6
-2 6 3 -20 -6 2 -7 -6
0 7 2 -21 -7 1 -7 -6
-2 7 2 -21 -7 1 -7 -6
-3 7 3 -21 -6 2 -7 -6
-4 7 3 -21 -6 2 -7 -6
-5 7 3 -21 -6 2 -7 -6
-6 6 4 -19 -5 3 -8 -7
-5 6 4 -17 -5 3 -8 -7
-4 7 3 -14 -5 2 -8 -7
-3 8 3 -12 -5 2 -8 -7
-2 8 3 -10 -5 2 -8 -7
0 9 2 -8 -5 1 -9 -8
-2 7 2 -7 -5 1 -9 -8
-3 6 2 -5 -5 1 -9 -8
-4 5 2 -4 -5 1 -9 -8
-5 3 2 -3 -5 1 -9 -8
-6 2 3 -2 -5 0 -10 -8
-5 2 3 -2 -5 0 -10 -8
-4 3 3 0 -5 0 -10 -7
-2 4 3 1 -5 0 -10 -6
0 4 3 1 -5 0 -10 -6
1 5 4 2 -5 1 -10 -5
-2 4 3 2 -6 0 -11 -6
-4 3 2 3 -6 -2 -12 -7
-6 1 0 4 -7 -4 -13 -8
-8 0 -2 4 -8 -5 -14 -9
-10 -2 -3 5 -9 -6 -15 -10
-9 0 -2 5 -9 -6 -15 -10
-8 0 0 5 -9 -6 -15 -10
-7 1 2 6 -10 -6 -15 -10
-6 2 3 6 -10 -6 -15 -10
-5 3 4 7 -11 -7 -16 -11
-5 4 4 7 -11 -6 -16 -11
-4 4 4 7 -10 -5 -15 -10
-3 5 4 6 -9 -4 -14 -9
-3 6 4 6 -9 -3 -14 -9
-2 7 4 5 -8 -2 -13 -8
-3 5 3 4 -8 -2 -13 -8
-4 3 3 3 -9 -2 -14 -9
-5 1 2 2 -10 -2 -15 -10
-6 -2 1 1 -10 -2 -15 -10
-7 -3 0 0 -11 0 -16 -11
-7 -2 1 2 -11 1 -16 -11
-7 -2 1 4 -11 2 -16 -11
-7 0 2 6 -11 4 -16 -10
-7 1 3 8 -11 5 -16 -10
-6 2 4 9 -10 6 -16 -9
-6 2 4 8 -10 6 -16 -9
-6 2 3 7 -10 6 -16 -9
-6 2 2 5 -10 5 -16 -9
-6 2 2 4 -10 5 -16 -9
-5 1 1 3 -11 4 -17 -10
-6 1 1 3 -11 4 -17 -10
-6 1 1 4 -11 4 -17 -10
-7 1 1 5 -11 4 -17 -11
-8 1 1 5 -11 4 -17 -11
-8 2 0 6 -12 3 -17 -12
-6 3 1 6 -12 3 -17 -12
-4 4 1 6 -11 3 -17 -11
0 6 2 6 -10 4 -17 -10
2 7 3 6 -10 4 -17 -10
4 8 4 6 -9 5 -16 -9
2 8 4 6 -9 5 -14 -9
1 8 4 7 -8 5 -12 -9
0 7 5 8 -7 5 -10 -9
-3 7 5 8 -7 5 -8 -9
-4 6 6 9 -6 6 -6 -8
-4 5 6 7 -7 5 -5 -8
-5 4 6 6 -8 4 -5 -9
-6 3 5 4 -10 3 -4 -10
-6 2 5 2 -11 2 -3 -10
-7 1 4 1 -12 1 0 -11
-7 2 4 2 -12 3 2 -11
-7 3 4 3 -11 4 5 -11
-7 5 4 5 -10 5 7 -10
-7 6 4 6 -10 7 10 -10
-6 7 5 7 -9 8 12 -9
-6 7 6 7 -9 8 12 -9
-6 8 6 7 -9 8 12 -9
-6 9 7 7 -8 8 12 -8
-6 9 8 7 -8 8 12 -8
-6 10 9 8 -7 7 11 -7
-7 9 8 8 -7 7 10 -7
-7 8 8 8 -7 7 9 -7
-8 6 7 7 -7 6 8 -8
-9 5 6 7 -7 6 7 -8
-10 5 6 6 -7 6 6 -8
-8 9 8 9 -5 8 9 -5
-7 12 11 11 -3 10 11 -3
-5 16 13 13 1 13 13 1
-3 19 16 15 3 15 15 4
-2 22 18 17 5 17 17 6
1 22 17 16 5 17 17 6
3 22 16 16 5 17 17 6
5 22 14 15 4 17 17 6
7 22 13 14 4 17 17 6
9 23 12 13 3 16 17 5
10 24 10 12 3 16 16 5
10 25 8 11 3 15 16 5
11 27 6 10 2 14 15 5
12 28 4 9 2 14 14 5
13 29 2 8 1 13 13 4
13 28 2 7 0 11 12 4
13 27 2 6 -2 10 11 4
13 25 2 4 -3 9 10 3
13 24 2 3 -4 7 9 3
13 23 1 2 -5 6 8 2
12 21 0 2 -5 6 8 2
12 19 -2 2 -5 6 8 2
11 17 -4 2 -5 6 9 2
10 16 -5 2 -5 6 9 2
8 14 -6 1 -5 7 10 3
3 12 -6 0 -6 6 9 2
-2 10 -6 0 -6 5 8 2
-7 8 -6 -2 -7 4 6 1
-11 6 -6 -3 -8 3 5 0
-14 4 -7 -4 -9 2 4 -2
-14 4 -7 -4 -9 2 3 -2
-14 3 -7 -4 -9 1 3 -3
-14 2 -6 -4 -9 0 2 -4
-14 2 -6 -4 -9 0 1 -4
-13 1 -5 -5 -10 -2 0 -5
-12 1 -5 -6 -10 -3 -2 -7
-11 1 -5 -6 -11 -5 -4 -8
-9 1 -5 -7 -12 -6 -5 -10
-8 1 -5 -8 -12 -8 -7 -12
-7 -2 -5 -9 -13 -9 -8 -13
-8 -4 -6 -9 -13 -9 -10 -14
-9 -7 -6 -9 -14 -10 -11 -15
-11 -10 -7 -9 -15 -11 -13 -16
-12 -13 -8 -9 -15 -11 -15 -17
-13 -14 -9 -8 -16 -12 -16 -18
-12 -12 -7 -4 -15 -11 -14 -16
-11 -9 -5 1 -13 -9 -12 -15
-9 -6 -3 4 -12 -8 -10 -13
-8 -3 0 8 -10 -6 -9 -11
-7 0 2 11 -9 -5 -7 -10
-8 -2 2 14 -9 -5 -8 -11
-8 -3 2 16 -9 -5 -8 -12
-9 -5 2 19 -8 -6 -9 -13
-10 -6 2 21 -8 -6 -10 -14
-11 -8 5 26 -4 -6 -11 -15
-13 -11 13 33 5 -3 -11 -18
-14 -15 20 42 13 1 -11 -20
-16 -18 27 50 21 4 -11 -23
-18 -21 34 58 30 7 -11 -25
-17 -24 43 71 43 18 -4 -21
-10 -21 51 92 63 42 18 -6
-4 -19 60 113 82 65 39 10
4 -17 69 134 103 89 61 25
10 -15 77 155 123 112 82 40
20 -10 84 176 143 139 109 61
36 -2 86 194 163 170 144 89
52 7 87 213 183 200 180 116
67 15 89 232 203 231 215 143
82 23 91 251 224 262 250 171
95 33 82 250 228 279 273 193
103 50 58 213 205 272 278 207
111 65 32 177 183 265 283 222
118 80 8 141 161 258 288 236
127 96 -17 104 139 251 294 251
126 106 -40 58 102 217 270 242
107 104 -61 -7 40 139 197 196
89 103 -80 -71 -21 61 126 150
70 101 -101 -135 -82 -16 54 104
52 99 -120 -199 -144 -94 -19 58
37 93 -136 -240 -186 -146 -69 23
31 76 -143 -243 -194 -156 -83 7
25 60 -150 -247 -202 -168 -97 -9
19 44 -156 -251 -211 -179 -111 -25
12 27 -163 -254 -219 -190 -126 -40
7 15 -162 -245 -217 -190 -131 -51
2 7 -143 -215 -192 -171 -119 -51
-3 -2 -124 -183 -168 -150 -108 -51
-8 -10 -106 -152 -144 -131 -97 -50
-13 -18 -88 -121 -119 -111 -86 -50
-15 -22 -71 -95 -98 -93 -74 -47
-12 -20 -59 -77 -80 -77 -63 -38
-9 -17 -46 -60 -64 -62 -51 -30
-6 -14 -33 -43 -47 -48 -39 -22
-3 -11 -20 -24 -29 -32 -28 -14
-2 -9 -12 -13 -18 -22 -20 -9
-5 -9 -11 -10 -17 -22 -20 -9
-8 -9 -9 -8 -16 -21 -20 -9
-11 -10 -8 -5 -15 -20 -21 -9
-14 -10 -6 -3 -14 -20 -21 -9
-16 -11 -5 1 -13 -19 -22 -8
-14 -11 -4 5 -11 -18 -22 -9
-12 -11 -4 9 -9 -17 -22 -10
-10 -11 -3 14 -7 -16 -22 -11
-8 -11 -2 18 -5 -15 -22 -12
-6 -11 0 21 -3 -14 -22 -13
-8 -11 0 21 -2 -14 -20 -12
-9 -11 0 21 -2 -14 -19 -10
-11 -11 0 21 0 -13 -17 -9
-12 -11 0 21 1 -13 -16 -7
-14 -12 1 21 2 -12 -14 -6
-13 -12 2 21 3 -11 -14 -6
-13 -12 3 21 5 -11 -14 -6
-12 -11 4 21 6 -10 -14 -6
-11 -11 5 21 8 -9 -14 -6
-10 -10 6 21 9 -8 -14 -6
-10 -11 6 21 10 -8 -14 -6
-11 -12 6 21 10 -8 -14 -6
-12 -13 5 21 11 -8 -14 -6
-12 -14 5 21 12 -8 -14 -6
-13 -15 4 22 13 -7 -15 -7
-11 -13 4 22 14 -6 -15 -7
-9 -10 5 23 15 -6 -14 -7
-7 -8 6 24 17 -5 -13 -6
-6 -6 6 24 18 -4 -13 -6
-4 -4 7 25 19 -3 -12 -5
-4 -5 5 24 19 -3 -12 -5
-4 -6 4 24 18 -3 -12 -5
-5 -7 2 23 17 -4 -12 -5
-5 -8 1 22 17 -4 -12 -5
-6 -9 -2 21 16 -5 -13 -5
-7 -9 -2 21 16 -5 -13 -5
-7 -9 -2 21 16 -5 -13 -4
-8 -9 0 22 16 -5 -13 -3
-9 -9 0 22 16 -5 -13 -3
-10 -9 1 23 15 -4 -12 -2
-10 -9 1 23 15 -4 -11 0
-9 -9 1 23 15 -3 -11 0
-9 -9 1 23 16 -3 -10 1
-8 -9 1 23 16 -2 -9 2
-7 -10 1 22 17 0 -8 3
-7 -10 1 22 17 0 -8 3
-7 -10 1 22 17 0 -8 3
-6 -10 1 22 18 0 -8 3
-6 -10 1 22 18 0 -8 3
-5 -11 1 23 19 1 -9 2
-5 -11 0 22 19 1 -9 2
-4 -11 0 21 19 0 -9 2
-4 -11 -2 20 18 0 -10 2
-3 -11 -3 19 18 -2 -10 2
-2 -11 -4 18 17 -3 -11 2
-2 -10 -3 19 18 0 -11 2
-3 -10 -3 20 19 1 -10 2
-3 -9 -2 21 20 3 -10 3
-4 -8 0 23 22 4 -9 3
-5 -7 1 24 23 6 -8 4
-3 -7 1 24 23 5 -8 4
-2 -7 0 24 23 4 -8 5
1 -7 0 24 23 3 -8 5
2 -7 -2 24 23 2 -8 6
4 -6 -3 24 23 1 -9 7
4 -7 -3 24 23 1 -9 7
4 -8 -3 24 23 1 -9 7
3 -9 -3 24 23 1 -9 7
3 -10 -3 24 23 1 -9 7
2 -11 -3 24 24 2 -10 7
4 -9 -4 24 24 3 -9 9
6 -7 -5 25 24 4 -7 10
7 -6 -6 25 25 5 -6 12
9 -4 -7 26 25 6 -4 13
11 -2 -8 27 26 7 -3 15
10 -2 -8 27 26 7 -3 15
9 -2 -8 27 26 7 -3 15
8 -2 -8 26 26 7 -3 16
7 -2 -8 26 26 7 -3 16
6 -3 -8 25 27 7 -2 17
7 -4 -8 25 27 7 -2 17
8 -5 -8 25 27 7 -2 17
9 -6 -9 25 27 6 -2 18
10 -7 -9 25 27 6 -2 18
11 -8 -10 25 26 5 -3 19
13 -6 -10 25 26 5 -3 19
16 -5 -10 25 26 5 -3 20
18 -3 -10 26 27 6 -3 20
20 -2 -10 26 27 6 -3 21
22 1 -10 27 28 7 -2 22
21 0 -10 27 28 7 -2 22
19 -3 -11 26 28 7 -2 22
18 -4 -11 26 28 7 -2 22
16 -6 -12 25 28 7 -2 22
15 -7 -13 24 27 7 -3 23
17 -5 -13 24 27 7 -3 23
18 -3 -13 24 27 7 -3 23
20 0 -13 24 27 6 -4 22
21 2 -13 24 27 6 -4 22
23 4 -13 24 26 5 -5 21
23 3 -13 24 26 5 -5 21
23 3 -13 23 26 5 -5 22
22 2 -13 23 25 5 -5 22
22 1 -13 22 25 5 -5 23
21 0 -13 21 24 4 -5 24
20 2 -13 21 24 4 -5 24
20 3 -13 21 24 4 -5 24
19 5 -13 21 24 4 -5 25
18 6 -13 21 24 4 -5 25
17 8 -13 20 24 3 -6 26
18 7 -14 18 22 1 -8 26
19 5 -16 16 20 -3 -10 25
20 4 -17 14 18 -5 -11 25
22 3 -18 12 16 -7 -13 24
23 1 -20 10 14 -9 -15 23
20 -2 -20 9 14 -9 -16 22
17 -4 -19 9 14 -10 -16 21
14 -5 -19 8 13 -10 -17 20
11 -7 -18 7 13 -11 -18 18
8 -9 -17 6 12 -12 -19 17
10 -6 -17 5 12 -13 -20 17
11 -4 -17 5 11 -14 -20 17
13 -2 -17 4 11 -15 -21 17
14 2 -17 3 10 -16 -22 17
16 4 -18 2 9 -17 -23 17
12 1 -18 1 9 -18 -23 15
8 -3 -18 1 9 -18 -24 14
5 -6 -18 0 9 -19 -24 12
1 -8 -18 -2 9 -20 -25 11
-3 -11 -17 -3 8 -21 -26 9
0 -10 -17 -3 8 -20 -23 10
2 -9 -17 -3 8 -19 -20 10
3 -8 -16 -2 9 -18 -17 11
5 -7 -16 -2 9 -16 -14 12
7 -6 -15 0 10 -15 -11 13
7 -5 -15 0 11 -15 -10 13
7 -5 -15 1 12 -15 -9 13
7 -4 -14 1 13 -15 -8 12
7 -3 -14 2 14 -15 -6 12
7 -2 -13 3 15 -14 -5 11
7 -2 -13 2 15 -14 -2 11
7 -2 -13 1 15 -14 2 11
6 -3 -13 0 16 -14 5 11
6 -3 -13 -3 16 -14 7 11
5 -4 -13 -4 17 -14 10 10
3 -7 -13 -3 17 -13 11 10
2 -9 -13 -3 17 -12 11 10
0 -11 -14 -2 17 -11 12 10
-2 -14 -14 0 17 -10 13 10
-4 -16 -15 1 18 -9 14 11
-7 -16 -15 1 18 -9 15 11
-10 -16 -15 1 18 -8 17 11
-13 -16 -15 0 19 -8 19 12
-16 -16 -15 0 19 -7 20 12
-19 -15 -16 -2 20 -6 22 13
-16 -14 -16 -2 20 -6 22 13
-12 -13 -16 -2 20 -6 22 13
-9 -12 -16 -2 20 -6 23 14
-6 -11 -16 -2 20 -6 23 14
-3 -10 -16 0 20 -5 24 15
-3 -10 -16 0 20 -5 24 15
-3 -11 -16 0 20 -4 24 15
-3 -11 -17 0 21 -4 24 15
-3 -12 -17 0 21 -3 24 15
-4 -13 -18 1 22 -2 23 15
-5 -14 -18 1 22 -2 23 15
-6 -15 -18 0 21 -2 22 14
-7 -16 -19 0 21 -3 22 13
-8 -18 -19 -2 20 -3 21 12
-9 -19 -20 -3 19 -4 20 11
-9 -19 -20 -3 19 -4 20 11
-8 -19 -20 -3 19 -4 20 10
-8 -19 -20 -3 20 -4 20 10
-7 -19 -20 -3 20 -4 20 9
-6 -20 -21 -4 21 -3 21 8
-4 -19 -21 -4 21 -3 21 9
-2 -18 -20 -3 21 -3 22 11
2 -17 -19 -3 22 -2 22 13
4 -16 -18 -2 22 -2 23 14
6 -15 -17 0 23 0 24 16
3 -15 -17 0 23 0 24 16
1 -15 -17 0 23 0 24 15
-3 -15 -18 -2 23 0 23 15
-5 -15 -18 -2 23 0 23 14
-8 -16 -19 -3 22 -2 22 13
-8 -17 -19 -3 22 0 22 13
-7 -18 -19 -3 22 2 23 14
-6 -19 -19 -3 23 3 23 14
-5 -21 -19 -3 23 4 24 15
-4 -22 -19 -3 24 6 25 16
-4 -21 -19 -3 25 8 26 17
-4 -20 -19 -2 26 10 28 19
-4 -19 -19 -2 27 12 29 20
-4 -17 -19 0 29 14 30 21
-4 -16 -19 1 30 16 32 23
-4 -16 -19 1 30 15 31 22
-5 -16 -19 1 29 14 30 21
-5 -16 -19 1 28 13 29 20
-6 -16 -19 1 27 11 28 19
-7 -17 -18 0 26 10 27 18
-6 -17 -19 -2 26 10 27 18
-4 -17 -20 -3 25 10 26 17
-2 -17 -21 -4 25 9 26 16
0 -17 -23 -6 24 9 25 15
2 -18 -24 -7 23 8 24 14
0 -19 -24 -7 23 8 24 14
-2 -20 -23 -7 24 8 24 15
-4 -21 -23 -6 25 9 24 15
-6 -22 -22 -6 26 9 24 16
-8 -23 -21 -5 27 10 25 17
-8 -22 -21 -5 27 10 25 17
-7 -20 -21 -5 26 10 25 17
-7 -19 -21 -5 26 10 25 17
-6 -18 -21 -5 25 10 25 17
-5 -16 -21 -5 24 9 26 17
-5 -16 -21 -5 24 9 26 17
-4 -16 -21 -5 24 9 26 17
-4 -17 -21 -5 25 9 25 17
-3 -17 -21 -5 25 9 25 17
-2 -18 -22 -5 26 8 24 16
-2 -18 -22 -2 26 8 24 16
-2 -18 -22 3 26 8 24 16
-2 -18 -22 6 25 8 24 16
-2 -18 -22 9 25 8 24 16
-3 -19 -21 12 24 9 25 16
-3 -20 -22 12 24 9 25 16
-3 -22 -23 12 23 8 25 16
-3 -23 -24 12 22 8 24 15
-3 -24 -25 12 21 7 24 15
-4 -26 -26 11 20 6 23 14
-4 -25 -26 11 20 6 23 14
-4 -24 -26 12 20 6 22 14
-5 -23 -26 13 20 5 22 13
-5 -22 -26 14 20 5 21 13
-6 -21 -25 15 19 4 20 12
-7 -22 -25 15 19 4 20 12
-8 -23 -25 14 19 4 20 12
-9 -24 -26 13 18 3 19 11
-11 -26 -26 12 18 3 19 11
-12 -27 -27 11 17 2 18 10
-12 -29 -28 11 16 1 16 9
-12 -30 -29 12 14 -2 15 7
-11 -32 -30 12 13 -4 13 6
-11 -34 -32 13 12 -5 11 5
-10 -36 -33 14 10 -7 9 3
-9 -34 -33 14 10 -7 10 3
-7 -31 -32 14 10 -6 11 4
-6 -29 -32 14 11 -5 12 5
-5 -26 -31 14 11 -4 13 6
-3 -24 -30 14 12 -3 14 7
-3 -24 -30 13 12 -3 14 7
-3 -24 -30 11 12 -3 14 7
-3 -24 -30 10 12 -3 14 7
-3 -24 -30 9 12 -3 14 7
-4 -25 -31 7 12 -2 14 6
-6 -25 -31 8 12 0 14 6
-7 -25 -31 9 12 2 14 7
-9 -26 -30 10 12 4 14 8
-11 -26 -30 11 12 5 14 9
-13 -27 -29 13 13 7 15 10
-10 -27 -29 13 13 7 15 10
-8 -27 -29 13 13 8 15 10
-5 -26 -29 12 13 9 15 10
-3 -26 -29 12 13 10 15 10
1 -25 -28 11 12 11 14 9
0 -26 -28 11 12 10 14 9
-3 -27 -28 11 12 9 14 8
-5 -28 -28 11 11 8 14 8
-6 -29 -28 11 11 7 14 7
-8 -30 -29 12 10 6 15 6
-8 -30 -29 12 10 6 14 6
-8 -30 -29 13 10 7 13 7
-9 -29 -29 14 11 7 12 7
-9 -29 -29 15 11 8 11 8
-10 -28 -30 16 12 9 9 9
-10 -28 -30 16 12 9 9 8
-10 -29 -30 16 11 8 9 6
-10 -30 -31 15 11 7 9 5
-10 -31 -31 15 10 6 9 4
-11 -32 -32 14 9 5 8 2
-11 -31 -32 14 9 6 8 2
-10 -30 -32 14 9 7 9 3
-10 -29 -32 14 9 8 9 4
-9 -28 -32 14 9 9 10 5
-8 -27 -32 15 10 10 11 6
-8 -29 -32 15 9 10 11 6
-8 -31 -32 14 8 9 10 5
-9 -33 -33 14 7 9 9 5
-9 -36 -33 13 6 8 8 4
-10 -38 -34 12 5 7 7 3
-9 -37 -34 12 5 7 7 3
-8 -36 -34 12 5 8 7 3
-6 -34 -34 12 5 8 7 3
-5 -33 -34 12 5 9 7 3
-3 -31 -35 11 6 10 8 4
-3 -31 -35 12 7 11 8 4
-3 -30 -34 13 8 12 9 4
-3 -29 -34 14 9 13 10 4
-3 -28 -33 15 10 14 11 4
-3 -27 -32 16 11 15 12 5
-3 -27 -32 15 10 14 12 5
-3 -27 -32 14 9 13 11 5
-4 -27 -33 13 8 12 10 5
-4 -27 -33 12 7 11 9 5
-5 -28 -34 10 6 10 8 4
-7 -28 -34 10 5 9 7 3
-10 -29 -34 10 4 8 6 1
-12 -29 -35 10 3 7 4 0
-14 -30 -35 10 2 6 3 -3
-17 -31 -36 10 0 5 1 -5
-17 -26 -35 10 0 5 1 -5
-16 -21 -34 11 0 5 1 -4
-15 -16 -32 11 0 6 2 -3
-14 -11 -31 12 0 6 2 -2
-13 -6 -29 13 1 7 3 0
-12 -6 -28 12 1 7 3 0
-11 -7 -27 10 1 6 2 -2
-10 -7 -26 9 1 6 2 -3
-9 -8 -25 7 1 5 1 -4
-8 -9 -24 5 0 4 0 -5
-8 -8 -23 5 0 3 -2 -5
-9 -7 -22 5 -2 2 -3 -6
-10 -6 -21 5 -3 1 -4 -7
-11 -5 -20 5 -4 0 -5 -8
-12 -4 -19 4 -5 -3 -6 -9
-12 -4 -19 4 -5 -3 -6 -9
-11 -3 -18 3 -5 -3 -6 -9
-10 -3 -18 3 -5 -2 -5 -9
-9 -2 -17 2 -5 -2 -5 -9
-8 0 -16 1 -5 0 -4 -8
-8 -3 -16 1 -6 -2 -5 -9
-9 -6 -15 1 -7 -3 -6 -10
-9 -8 -15 0 -8 -4 -8 -11
-10 -10 -14 0 -9 -5 -9 -12
-11 -13 -13 -2 -11 -7 -11 -13
-9 -9 -10 2 -9 -6 -10 -12
-7 -6 -6 4 -7 -4 -9 -11
-5 -2 -3 7 -5 -3 -7 -10
-3 3 1 10 -3 0 -6 -9
0 7 5 13 0 2 -4 -7
0 6 5 11 -2 1 -5 -8
0 5 4 8 -3 0 -6 -9
0 3 3 6 -5 -3 -7 -10
0 2 2 4 -6 -4 -8 -11
0 0 1 1 -8 -6 -9 -12
-4 0 2 1 -8 -5 -8 -11
-8 -2 3 2 -7 -4 -7 -10
-12 -3 4 3 -7 -3 -6 -9
-15 -4 5 4 -6 -2 -5 -8
-19 -5 6 5 -5 0 -4 -7
-17 -5 6 5 -5 0 -4 -7
-14 -4 6 5 -5 0 -4 -7
-12 -4 6 4 -5 0 -4 -7
-10 -3 6 4 -5 0 -4 -7
-7 -2 5 3 -6 1 -3 -6
-7 1 7 5 -4 2 1 -5
-7 3 9 7 -2 4 5 -3
-7 6 11 9 2 5 8 -2
-7 8 13 11 4 7 11 1
-6 11 15 13 7 9 15 3
-6 9 14 12 6 8 13 2
-5 7 12 10 5 7 11 1
-5 5 10 9 3 6 9 0
-4 3 8 7 2 5 7 -2
-3 1 6 5 0 4 5 -4
-2 4 7 6 0 4 5 -4
1 6 8 7 1 5 6 -3
2 9 9 8 1 5 6 -3
4 12 10 9 2 6 7 -2
6 15 12 10 3 7 8 0
4 15 11 10 3 8 9 1
2 15 10 10 4 9 10 2
-2 14 9 10 5 10 11 4
-4 14 8 10 6 11 12 5
-7 13 6 9 7 12 14 7
-6 13 5 8 6 12 14 7
-4 13 4 6 5 12 14 7
-2 13 2 5 4 11 13 7
1 13 1 3 3 11 13 7
3 14 -2 1 2 10 12 6
5 16 -2 1 2 10 12 6
8 18 -2 1 2 9 11 6
10 20 -2 0 2 9 11 5
13 22 -2 0 2 8 10 5
16 24 -2 -2 1 7 9 4
15 21 -3 -2 1 7 9 4
13 18 -4 -2 0 7 9 4
12 15 -5 -2 0 7 9 4
10 12 -6 -2 -2 7 9 4
8 9 -8 -3 -3 7 9 4
7 9 -8 -4 -3 7 8 3
6 8 -9 -5 -4 6 7 2
4 7 -9 -6 -4 5 6 1
3 6 -10 -7 -5 4 5 0
1 5 -11 -8 -6 3 4 -2
-2 3 -11 -9 -7 2 2 -3
-4 0 -10 -10 -8 0 0 -5
-6 -3 -9 -11 -9 -3 -3 -7
-8 -6 -8 -12 -10 -5 -5 -9
-11 -9 -7 -13 -12 -7 -7 -11
-11 -9 -7 -13 -12 -7 -7 -11
-10 -9 -7 -13 -12 -7 -7 -11
-9 -9 -7 -14 -12 -7 -7 -10
-8 -9 -7 -14 -12 -7 -7 -10
-7 -10 -8 -15 -11 -6 -6 -9
-7 -10 -8 -15 -11 -6 -6 -9
-7 -10 -8 -16 -12 -6 -6 -10
-7 -10 -8 -16 -12 -6 -7 -10
-7 -10 -8 -17 -13 -6 -7 -11
-8 -11 -9 -18 -14 -7 -8 -12
-8 -11 -9 -18 -14 -7 -8 -12
-8 -10 -8 -18 -14 -7 -8 -12
-8 -10 -8 -17 -14 -7 -8 -12
-8 -9 -7 -17 -14 -7 -8 -12
-7 -8 -6 -16 -14 -7 -8 -13
-7 -8 -6 -11 -14 -7 -8 -14
-7 -8 -5 -6 -14 -7 -8 -15
-8 -9 -4 0 -13 -7 -9 -16
-8 -9 -3 5 -13 -7 -9 -17
-9 -10 -2 10 -12 -6 -10 -19
-9 -11 6 19 -2 2 -5 -20
-10 -13 13 27 10 9 1 -21
-11 -15 20 36 20 16 6 -22
-12 -17 28 46 30 24 11 -23
-13 -19 35 55 42 31 16 -25
-6 -16 45 78 63 56 39 -7
2 -13 55 102 85 81 63 12
10 -10 65 126 107 106 86 29
17 -7 74 149 129 131 109 48
25 -4 85 173 150 155 133 66
39 3 86 186 169 188 173 100
55 9 88 198 188 220 213 133
69 16 89 212 206 252 252 165
84 22 91 225 225 284 292 199
99 29 93 238 244 316 330 232
102 46 64 195 213 300 325 237
105 63 36 152 181 284 320 242
108 79 8 109 149 268 314 248
111 96 -20 67 117 252 309 254
114 113 -49 24 86 234 302 260
94 104 -65 -33 26 154 225 209
72 95 -81 -90 -32 74 147 156
51 86 -98 -147 -92 -5 70 105
30 76 -114 -204 -151 -85 -8 54
9 67 -131 -261 -210 -164 -85 3
5 53 -136 -257 -212 -168 -92 -11
1 37 -141 -252 -215 -172 -100 -24
-4 22 -147 -246 -218 -176 -108 -37
-8 7 -152 -241 -221 -180 -116 -51
-13 -9 -158 -236 -224 -184 -124 -65
-13 -11 -141 -210 -201 -163 -111 -61
-13 -13 -123 -182 -178 -143 -98 -57
-13 -16 -106 -155 -154 -122 -85 -52
-13 -18 -89 -128 -131 -102 -71 -48
-13 -21 -70 -100 -107 -81 -58 -43
-11 -19 -60 -83 -94 -70 -50 -38
-9 -16 -50 -66 -79 -58 -41 -33
-7 -13 -39 -50 -66 -47 -32 -28
-6 -10 -29 -32 -52 -34 -24 -23
-4 -8 -19 -16 -38 -23 -16 -19
-5 -7 -17 -13 -36 -21 -14 -17
-7 -8 -16 -10 -34 -19 -13 -16
-9 -9 -14 -7 -33 -18 -12 -15
-11 -10 -13 -4 -31 -16 -11 -14
-13 -11 -12 -2 -30 -15 -10 -13
-12 -12 -11 1 -29 -14 -9 -12
-10 -11 -10 3 -28 -14 -9 -13
-7 -10 -9 5 -27 -14 -8 -13
-5 -9 -8 7 -26 -14 -8 -14
-3 -9 -8 8 -25 -14 -8 -14
-3 -8 -7 11 -23 -12 -7 -15
-4 -8 -7 13 -22 -11 -7 -14
-6 -8 -7 16 -21 -10 -6 -13
-7 -8 -7 18 -20 -9 -6 -12
-8 -8 -7 20 -19 -8 -6 -11
-9 -9 -7 20 -18 -7 -5 -10
-8 -9 -6 19 -18 -7 -5 -10
-7 -9 -6 18 -18 -7 -5 -11
-6 -9 -5 17 -18 -7 -5 -11
-6 -9 -5 16 -18 -7 -5 -11
-5 -8 -4 15 -17 -6 -6 -12
-6 -8 -5 14 -17 -6 -6 -12
-7 -9 -6 13 -18 -6 -6 -12
-8 -9 -7 12 -18 -6 -6 -12
-9 -9 -8 12 -18 -6 -6 -12
-10 -9 -9 12 -16 -5 -6 -11
-10 -8 -8 13 -12 -4 -5 -10
-9 -7 -7 15 -9 -3 -4 -10
-9 -6 -6 16 -5 -2 -3 -9
-9 -5 -5 17 -2 0 -2 -9
-8 -5 -4 17 0 1 0 -8
-8 -6 -5 16 0 1 0 -7
-7 -7 -5 14 1 1 0 -7
-7 -8 -6 13 1 1 0 -6
-7 -9 -6 12 1 1 0 -6
-6 -8 -7 11 3 1 1 -5
-5 -6 -6 12 5 2 1 -4
-5 -4 -5 13 7 3 2 -3
-4 -2 -4 14 9 4 2 -2
-4 1 -4 15 11 4 2 0
-3 1 -3 16 13 5 3 1
-4 -2 -4 16 14 5 3 0
-5 -3 -5 15 15 5 3 0
-6 -5 -6 15 16 5 3 -2
-6 -6 -6 15 17 5 3 -2
-7 -7 -7 14 19 5 3 -3
-7 -7 -7 14 20 5 3 -3
-7 -7 -6 15 21 6 3 -2
-7 -7 -6 15 22 6 3 -2
-7 -7 -6 15 23 6 3 -2
-5 -8 -5 16 24 7 3 0
-3 -7 -6 15 23 7 3 0
-2 -6 -6 14 22 6 2 0
1 -5 -7 13 21 6 2 0
2 -5 -7 13 21 6 2 0
1 -4 -8 12 20 5 1 -2
-2 -5 -9 12 20 5 1 -2
-4 -6 -9 12 19 5 1 -2
-6 -7 -10 12 19 5 1 -2
-8 -7 -10 12 19 5 1 -2
-7 -7 -11 13 18 5 2 0
-4 -5 -10 13 18 6 3 2
0 -4 -10 13 19 7 4 4
3 -2 -9 13 19 8 5 6
6 0 -9 13 19 8 6 7
7 1 -9 14 20 9 7 8
7 0 -10 14 20 9 6 8
7 -2 -12 13 20 9 6 7
7 -3 -13 13 20 9 5 7
7 -4 -14 13 20 9 5 7
7 -4 -15 13 19 10 4 7
7 -2 -14 14 20 11 5 8
7 0 -13 15 21 12 6 10
7 2 -12 16 22 13 7 11
7 3 -12 17 23 14 8 12
7 4 -11 18 24 15 9 12
7 5 -11 17 23 14 8 11
7 5 -11 16 22 13 7 10
7 6 -11 15 21 12 6 9
7 6 -11 15 20 11 6 8
8 7 -12 14 19 11 7 9
8 7 -13 15 20 13 9 11
9 7 -13 15 21 15 11 13
9 7 -14 16 22 17 13 15
9 7 -14 16 23 18 15 17
10 7 -15 17 24 19 16 18
10 6 -15 17 24 19 15 17
10 5 -15 18 24 18 14 16
10 4 -15 18 24 18 13 15
10 4 -15 18 24 18 13 15
11 3 -16 19 25 17 12 14
12 4 -17 18 24 17 12 14
14 4 -18 17 23 16 12 15
15 5 -19 16 22 16 12 15
16 5 -20 16 21 16 12 15
17 6 -21 15 20 15 12 16
17 6 -21 15 20 15 11 16
17 6 -21 15 19 14 11 17
17 6 -21 15 19 14 10 17
17 6 -21 15 19 14 10 17
17 6 -20 15 18 13 9 18
17 7 -21 14 17 12 9 18
18 8 -22 13 17 12 8 18
18 9 -23 12 16 11 8 18
18 9 -23 11 16 11 8 18
19 10 -24 10 15 10 6 17
19 10 -23 9 14 9 5 16
19 10 -23 9 13 9 3 15
19 10 -22 8 12 8 2 14
19 10 -22 8 11 8 1 13
21 9 -21 6 9 6 0 12
23 10 -22 5 8 5 -2 12
25 11 -22 3 7 4 -3 11
27 12 -23 2 6 3 -4 11
28 13 -23 1 5 2 -5 11
26 13 -24 -2 3 -2 -7 9
22 11 -25 -4 1 -4 -10 7
18 9 -26 -6 -2 -7 -12 6
14 7 -27 -8 -4 -10 -14 4
10 5 -28 -10 -6 -12 -16 3
11 6 -29 -11 -7 -13 -17 2
13 9 -28 -11 -7 -12 -17 3
16 12 -27 -11 -6 -12 -17 4
19 15 -26 -11 -6 -11 -17 5
21 18 -25 -11 -6 -11 -17 5
19 17 -24 -11 -6 -11 -17 5
15 14 -25 -12 -7 -12 -19 4
10 11 -25 -13 -9 -13 -20 2
6 9 -26 -14 -10 -14 -22 1
2 6 -26 -15 -11 -15 -23 0
1 5 -26 -16 -12 -16 -24 -2
1 5 -25 -16 -11 -15 -24 -2
2 5 -23 -16 -10 -14 -23 -2
2 5 -22 -16 -9 -13 -23 -2
2 5 -21 -16 -9 -12 -23 -2
3 6 -20 -15 -8 -11 -22 0
2 6 -19 -14 -7 -11 -22 0
2 6 -19 -13 -6 -10 -21 0
1 6 -18 -12 -5 -10 -21 0
1 6 -18 -11 -4 -10 -21 0
1 5 -17 -10 -3 -9 -20 -2
2 5 -17 -10 -3 -8 -19 -2
3 5 -17 -10 -3 -7 -19 -2
4 5 -17 -10 -3 -6 -18 -2
5 5 -17 -10 -3 -6 -18 -2
3 4 -16 -11 -2 -5 -17 0
0 2 -15 -11 0 -4 -17 -2
-5 0 -14 -10 1 -3 -17 -3
-8 -4 -13 -10 2 -2 -17 -4
-12 -6 -12 -10 3 0 -17 -5
-12 -6 -11 -9 4 1 -18 -6
-11 -4 -12 -9 4 2 -17 -6
-10 -2 -12 -9 5 3 -16 -5
-9 0 -13 -9 5 4 -15 -5
-8 2 -13 -9 5 4 -14 -5
-7 2 -14 -9 5 4 -13 -4
-7 1 -14 -10 4 3 -14 -4
-7 -2 -14 -11 2 2 -15 -4
-7 -3 -14 -12 0 1 -16 -4
-7 -4 -14 -13 -2 0 -16 -4
-8 -5 -15 -14 -3 0 -17 -5
-8 -5 -15 -13 -2 1 -16 -4
-8 -4 -14 -12 0 3 -15 -3
-8 -4 -14 -11 1 4 -14 -2
-8 -4 -14 -10 1 5 -14 -2
-7 -3 -13 -9 2 6 -13 0
-6 -3 -13 -9 2 6 -13 0
-6 -3 -13 -9 2 6 -13 0
-5 -3 -13 -9 2 6 -13 0
-5 -3 -13 -9 2 6 -13 0
-4 -4 -13 -9 2 6 -13 0
-5 -4 -13 -9 2 7 -13 1
-5 -4 -12 -9 2 7 -12 1
-6 -4 -12 -9 2 8 -12 2
-6 -4 -12 -9 2 8 -12 2
-7 -5 -11 -8 3 9 -11 3
-8 -6 -11 -8 2 8 -12 2
-8 -6 -12 -8 1 8 -12 1
-9 -7 -12 -8 0 7 -13 0
-9 -7 -12 -8 -2 7 -13 0
-10 -7 -13 -8 -2 6 -14 -2
-9 -5 -13 -8 0 7 -13 0
-8 -3 -13 -7 1 8 -12 1
-7 0 -13 -7 2 9 -11 2
-6 2 -13 -7 3 10 -11 3
-5 3 -12 -6 4 11 -10 4
-5 3 -12 -6 4 12 -10 4
-5 3 -11 -6 5 12 -9 4
-5 3 -11 -6 5 13 -9 4
-5 3 -11 -6 5 13 -9 4
-5 3 -10 -6 6 14 -8 4
-5 2 -11 -6 6 14 -8 4
-5 1 -11 -6 6 14 -9 4
-5 0 -12 -6 6 14 -9 4
-5 -2 -12 -6 6 14 -9 4
-5 -3 -13 -6 5 13 -10 3
-5 -3 -13 -6 5 13 -10 3
-5 -3 -13 -7 5 13 -10 4
-5 -3 -13 -7 5 13 -10 4
-5 -3 -13 -7 5 13 -10 4
-5 -3 -12 -8 6 14 -10 5
-5 -4 -12 -8 5 14 -10 5
-5 -5 -12 -8 5 13 -10 6
-5 -6 -12 -8 4 13 -10 6
-5 -7 -12 -8 4 13 -10 6
-4 -7 -13 -8 3 12 -10 7
-4 -6 -13 -8 3 13 -9 7
-3 -5 -13 -8 3 14 -8 6
-3 -3 -13 -8 3 15 -7 6
-3 -2 -13 -8 3 15 -7 6
-3 0 -13 -7 3 16 -6 5
-4 0 -13 -8 3 16 -7 5
-6 0 -14 -9 3 16 -7 5
-8 0 -14 -10 3 16 -8 5
-9 0 -14 -10 3 16 -8 5
-10 0 -15 -11 3 16 -9 4
-10 -2 -15 -11 2 16 -9 4
-9 -3 -15 -11 2 15 -10 4
-9 -5 -15 -11 1 15 -10 4
-9 -6 -15 -11 1 15 -10 4
-8 -7 -14 -11 0 14 -11 5
-7 -6 -14 -11 0 14 -11 5
-6 -5 -14 -12 0 14 -11 5
-5 -4 -14 -12 0 14 -11 5
-4 -4 -14 -12 0 14 -11 5
-4 -4 -13 -14 -3 13 -12 5
-5 -5 -15 -15 -4 12 -13 3
-6 -6 -16 -17 -5 10 -14 2
-8 -8 -17 -19 -7 8 -16 1
-9 -9 -18 -20 -8 7 -17 0
-9 -8 -18 -21 -9 6 -18 -2
-6 -6 -16 -20 -8 7 -18 0
-4 -3 -14 -19 -7 8 -17 1
0 0 -13 -18 -6 9 -17 2
2 3 -11 -17 -6 9 -17 3
2 4 -10 -16 -5 10 -16 4
0 2 -10 -16 -5 10 -16 4
-3 1 -10 -15 -5 10 -16 4
-4 0 -10 -15 -5 10 -16 4
-6 -2 -10 -15 -5 10 -16 4
-7 -3 -11 -15 -6 10 -15 4
-7 -5 -13 -17 -7 9 -14 3
-7 -6 -14 -19 -9 7 -13 2
-7 -7 -15 -20 -11 5 -12 0
-7 -8 -16 -22 -12 4 -11 -2
-8 -9 -17 -23 -13 3 -9 -3
-7 -8 -17 -23 -12 3 -8 -3
-7 -8 -17 -24 -11 3 -7 -3
-6 -7 -17 -24 -10 3 -5 -3
-6 -7 -17 -24 -10 3 -4 -3
-5 -6 -18 -25 -8 2 -3 -4
-5 -7 -17 -25 -6 3 -2 -4
-5 -7 -17 -25 -3 3 0 -3
-5 -8 -16 -25 0 4 1 -3
-5 -8 -16 -25 2 4 1 -3
-6 -9 -15 -24 4 5 2 -2
-7 -9 -15 -23 5 5 0 -2
-8 -8 -16 -22 6 5 -2 -3
-9 -8 -16 -20 8 5 -3 -3
-9 -8 -16 -19 9 5 -4 -3
-10 -7 -17 -17 10 4 -5 -4
-8 -5 -19 -15 10 4 -5 -4
-7 -4 -20 -12 9 5 -5 -4
-6 -3 -21 -10 9 5 -5 -4
-5 -2 -22 -8 9 5 -5 -4
-5 -3 -22 -7 8 6 -4 -3
-6 -6 -20 -6 8 5 -5 -2
-7 -9 -18 -5 7 4 -6 -2
-9 -13 -17 -4 7 3 -7 0
-10 -16 -15 -4 7 3 -7 0
-11 -15 -14 -3 6 2 -8 1
-9 -13 -14 -4 6 3 -8 1
-8 -10 -14 -5 5 3 -7 0
-7 -8 -14 -6 5 4 -7 0
-6 -5 -14 -6 5 4 -7 0
-5 -4 -15 -7 4 5 -6 -2
-5 -4 -15 -7 4 3 -7 -2
-5 -4 -15 -7 5 2 -8 -3
-5 -4 -15 -7 5 1 -9 -3
-5 -4 -15 -7 5 0 -9 -3
-5 -5 -15 -7 6 -2 -10 -4
-5 -6 -16 -7 4 -2 -11 -5
-6 -7 -17 -7 3 -2 -11 -5
-6 -8 -19 -7 2 -2 -12 -6
-6 -9 -20 -7 1 -2 -12 -6
-8 -10 -20 -8 1 -2 -11 -7
-9 -10 -19 -7 2 0 -7 -6
-10 -10 -17 -6 3 1 -4 -5
-12 -10 -15 -5 5 3 0 -4
-13 -10 -14 -4 6 4 4 -3
-13 -11 -13 -3 6 5 4 -2
-12 -10 -15 -5 5 4 2 -2
-11 -9 -16 -6 3 3 1 -3
-9 -8 -17 -7 1 2 -2 -3
-8 -7 -18 -8 0 2 -4 -3
-7 -6 -19 -9 -2 1 -5 -4
-7 -6 -18 -8 0 1 -5 -4
-7 -5 -18 -8 1 1 -5 -5
-7 -5 -17 -7 2 1 -5 -5
-7 -5 -17 -7 3 1 -5 -5
-7 -4 -16 -6 4 2 -6 -6
-8 -4 -16 -6 3 2 -6 -6
-8 -4 -16 -7 3 2 -7 -6
-9 -4 -16 -7 2 2 -7 -6
-9 -4 -16 -7 2 2 -7 -6
-9 -4 -15 -8 1 1 -8 -7
-7 -5 -13 -8 1 1 -8 -7
-4 -6 -12 -8 1 0 -9 -8
-2 -7 -11 -8 1 0 -9 -8
1 -7 -10 -8 1 0 -9 -8
1 -8 -8 -9 0 -2 -10 -9
0 -8 -7 -9 0 -2 -10 -8
-2 -8 -6 -8 0 -3 -10 -8
-4 -8 -4 -8 0 -3 -10 -7
-5 -8 -3 -8 0 -3 -10 -7
-6 -7 -2 -7 0 -4 -9 -6
-6 -7 1 -7 0 -4 -8 -6
-7 -6 2 -7 0 -3 -8 -6
-7 -6 3 -7 0 -3 -7 -6
-7 -6 4 -7 0 -3 -7 -6
-8 -5 5 -7 1 -2 -6 -5
-8 -6 5 -7 1 -2 -7 -5
-8 -6 5 -7 1 -2 -8 -5
-8 -7 5 -7 1 -2 -8 -5
-8 -7 5 -7 1 -2 -9 -5
-7 -8 5 -8 1 -2 -10 -6
-7 -8 4 -8 1 -2 -10 -6
-7 -7 3 -8 1 -2 -11 -7
-7 -7 3 -8 1 -2 -11 -7
-7 -7 2 -8 1 -2 -11 -7
-6 -6 1 -9 1 -2 -12 -8
-7 -5 1 -8 1 -2 -12 -7
-7 -5 1 -8 1 -2 -11 -7
-8 -4 1 -7 1 -2 -11 -6
-8 -4 1 -7 1 -2 -11 -6
-9 -3 2 -6 0 0 -10 -5
-8 -3 2 -7 0 0 -11 -6
-7 -3 2 -8 0 0 -11 -6
-7 -3 2 -9 0 0 -12 -7
-6 -3 2 -10 0 0 -12 -7
-5 -2 3 -11 0 1 -13 -8
-5 -3 3 -11 -2 0 -13 -8
-4 -4 2 -11 -2 0 -13 -8
-4 -5 2 -11 -3 -2 -13 -8
-4 -6 2 -11 -3 -2 -13 -8
-3 -7 1 -10 -4 -3 -13 -9
-3 -5 2 -10 -4 -3 -13 -9
-4 -4 2 -10 -4 -3 -12 -9
-4 -3 3 -10 -4 -3 -12 -9
-4 -2 3 -10 -4 -3 -12 -9
-5 0 4 -9 -3 -2 -11 -8
-7 -3 3 -10 -3 -3 -11 -8
-8 -4 3 -11 -3 -3 -11 -9
-9 -5 2 -11 -3 -4 -11 -9
-10 -6 2 -12 -3 -4 -11 -9
-8 -6 1 -12 -3 -5 -12 -10
-3 -4 2 -10 -2 -4 -11 -8
4 -2 3 -9 0 -3 -10 -7
9 2 3 -7 0 -2 -10 -6
14 4 4 -5 1 0 -9 -5
14 5 5 -4 2 1 -8 -4
10 5 6 -4 2 2 -7 -3
7 5 6 -4 3 2 -7 -3
3 5 7 -4 3 3 -6 -2
0 5 7 -4 3 3 -6 -2
-2 6 8 -5 4 4 -5 0
1 8 8 -5 4 4 -5 0
3 9 8 -5 4 4 -5 0
6 10 8 -5 4 4 -5 0
8 11 8 -5 4 4 -5 0
9 12 9 -5 3 5 -6 -2
8 12 10 -5 3 6 -6 0
7 11 11 -5 4 7 -6 0
7 11 12 -5 4 8 -6 1
6 11 13 -5 4 9 -6 1
5 11 14 -4 5 10 -5 2
6 13 13 -3 6 10 -3 3
7 14 13 -3 7 11 -2 4
8 16 12 -2 7 11 0 5
9 18 12 -2 8 11 1 6
10 19 9 0 9 12 2 7
10 19 6 -3 8 12 1 6
10 19 3 -4 7 12 0 6
10 19 0 -6 7 12 0 5
10 19 -4 -7 6 12 -2 5
11 19 -5 -9 5 11 -3 4
11 19 -4 -11 3 9 -4 4
11 18 -3 -12 2 7 -5 3
11 18 -3 -14 1 4 -6 3
11 18 -2 -16 0 2 -7 3
11 16 -2 -17 -2 1 -8 2
10 14 -3 -17 -2 2 -8 2
9 13 -5 -16 -2 3 -7 3
9 11 -6 -16 -2 4 -7 3
8 9 -8 -16 -2 5 -7 3
7 8 -9 -15 -3 6 -6 4
8 9 -8 -15 -3 5 -7 2
8 10 -8 -16 -4 4 -8 1
9 11 -7 -16 -4 3 -9 0
9 12 -7 -16 -4 2 -10 -2
9 11 -6 -17 -5 1 -11 -3
6 8 -6 -18 -6 1 -12 -3
3 4 -5 -19 -7 0 -12 -4
0 1 -5 -20 -7 0 -13 -4
-4 -3 -5 -21 -8 0 -13 -4
-5 -5 -4 -22 -9 -2 -14 -5
-3 -4 -4 -22 -9 -2 -14 -6
-2 -3 -3 -22 -10 -2 -14 -6
0 -2 -3 -22 -10 -2 -14 -7
1 0 -3 -22 -10 -2 -14 -7
2 1 -2 -21 -11 -3 -15 -8
1 0 -2 -21 -11 -4 -16 -9
0 0 -2 -22 -12 -4 -17 -10
-2 -2 -2 -22 -12 -5 -18 -11
-3 -2 -2 -22 -12 -5 -19 -12
-4 -4 0 -23 -13 -6 -20 -13
-4 -5 0 -24 -14 -7 -21 -14
-5 -7 -2 -25 -15 -8 -22 -16
-5 -9 -3 -25 -16 -9 -22 -17
-5 -11 -3 -26 -17 -10 -23 -18
-6 -12 -3 -26 -18 -11 -24 -19
-7 -12 1 -24 -17 -11 -25 -20
-8 -12 3 -21 -15 -11 -27 -21
-9 -12 6 -19 -14 -11 -28 -21
-10 -12 9 -16 -13 -11 -29 -22
-11 -12 14 -8 -5 -5 -28 -22
-10 -12 22 5 7 5 -25 -20
-9 -13 29 17 19 15 -21 -18
-8 -14 37 29 30 25 -17 -16
-7 -14 45 42 43 34 -14 -14
-4 -15 53 62 61 55 5 0
0 -15 61 86 82 79 30 19
4 -14 70 109 105 105 56 38
7 -13 78 133 127 130 82 58
10 -13 88 156 149 155 108 77
23 -5 90 172 168 185 143 106
42 8 89 182 183 216 184 140
60 20 87 191 198 247 224 174
77 32 85 201 215 279 265 207
96 45 82 212 230 311 306 241
104 58 65 187 215 310 314 255
107 71 38 142 180 292 305 258
110 85 12 97 145 272 295 260
113 99 -15 51 110 254 285 263
116 112 -41 6 76 234 275 266
105 111 -63 -47 26 175 222 234
84 101 -80 -102 -33 93 144 181
63 92 -98 -158 -92 11 66 129
42 81 -115 -214 -150 -71 -12 76
20 71 -133 -270 -210 -153 -90 24
11 60 -141 -284 -231 -183 -121 -3
8 48 -143 -275 -229 -183 -126 -14
5 34 -146 -265 -228 -183 -131 -25
2 22 -148 -256 -226 -183 -136 -35
-2 10 -151 -245 -225 -183 -141 -47
-4 3 -141 -224 -208 -171 -135 -51
-4 0 -122 -196 -184 -149 -120 -48
-4 -5 -104 -169 -159 -128 -107 -46
-4 -9 -86 -141 -135 -106 -93 -43
-4 -12 -67 -113 -109 -85 -79 -39
-4 -13 -55 -94 -93 -70 -69 -35
-2 -12 -46 -78 -80 -59 -61 -29
1 -10 -35 -63 -67 -49 -53 -24
3 -9 -26 -47 -55 -37 -45 -18
6 -7 -17 -31 -43 -26 -36 -13
5 -6 -13 -24 -37 -22 -33 -10
2 -6 -12 -21 -36 -22 -33 -11
-2 -6 -11 -18 -35 -22 -33 -12
-5 -6 -11 -15 -35 -22 -33 -13
-8 -6 -10 -12 -34 -22 -33 -14
-10 -7 -9 -8 -33 -21 -32 -15
-9 -7 -8 -5 -32 -20 -32 -15
-7 -7 -7 -2 -30 -19 -31 -14
-6 -7 -6 3 -29 -18 -31 -13
-5 -7 -5 6 -28 -17 -31 -13
-5 -7 -4 8 -27 -16 -30 -12
-9 -7 -3 7 -25 -14 -28 -11
-12 -6 -2 6 -24 -13 -27 -9
-15 -6 -2 6 -22 -11 -25 -8
-18 -6 0 5 -21 -10 -24 -7
-18 -5 1 4 -20 -9 -23 -6
-14 -5 1 4 -19 -9 -23 -6
-10 -5 1 4 -18 -8 -22 -7
-6 -5 1 4 -18 -7 -22 -7
-2 -5 1 4 -17 -7 -22 -7
1 -4 2 5 -16 -6 -21 -8
-2 -4 2 5 -16 -6 -21 -8
-4 -5 2 5 -16 -5 -21 -7
-5 -6 2 5 -16 -5 -21 -6
-7 -6 2 5 -16 -5 -21 -6
-8 -7 1 4 -16 -4 -20 -5
-7 -7 2 4 -16 -4 -20 -5
-5 -6 3 4 -16 -4 -19 -5
-4 -6 3 4 -16 -4 -19 -5
-3 -6 4 4 -16 -4 -19 -5
-2 -5 5 5 -16 -3 -18 -5
-2 -5 5 5 -16 -3 -18 -5
-3 -5 4 5 -17 -3 -18 -5
-4 -5 3 5 -17 -3 -18 -5
-4 -5 3 5 -17 -3 -18 -5
-5 -6 2 4 -18 -3 -18 -4
-4 -5 2 5 -17 -3 -18 -4
-3 -3 2 7 -15 -3 -18 -4
-2 -2 2 8 -14 -3 -18 -4
0 0 2 9 -13 -3 -18 -4
1 1 2 10 -12 -2 -17 -5
1 1 2 10 -12 -2 -17 -5
0 0 2 10 -12 0 -16 -5
0 0 2 10 -12 0 -16 -5
0 0 2 10 -12 0 -16 -5
1 0 3 9 -12 1 -15 -4
5 2 3 10 -12 1 -15 -3
9 4 2 11 -11 2 -16 -2
13 6 2 11 -10 3 -16 -2
17 9 2 12 -10 3 -16 0
17 9 1 13 -9 4 -17 1
12 7 1 13 -9 4 -16 1
8 4 1 12 -10 3 -15 0
3 2 1 11 -11 3 -14 -2
-3 0 1 11 -11 3 -13 -2
-5 -3 1 10 -12 2 -12 -3
-4 -3 1 10 -12 2 -12 -3
-2 -3 0 10 -12 2 -12 -2
0 -3 0 10 -12 2 -12 -2
1 -3 0 10 -12 2 -12 -2
2 -3 -2 11 -13 1 -13 0
4 -2 0 11 -12 2 -12 2
5 1 1 11 -11 4 -11 4
7 2 1 11 -11 5 -10 5
8 3 2 11 -10 6 -9 7
9 5 3 11 -9 7 -8 8
11 6 3 13 -9 7 -8 8
12 8 3 14 -8 7 -8 7
14 10 3 16 -8 7 -8 7
15 12 3 17 -8 7 -8 7
15 11 2 17 -7 8 -9 6
12 6 0 15 -8 7 -9 6
9 1 -3 13 -9 6 -9 6
7 -5 -4 11 -9 6 -9 6
4 -9 -6 8 -10 5 -9 6
2 -10 -7 8 -11 5 -9 7
4 -6 -6 11 -9 7 -7 9
5 0 -5 14 -7 9 -5 11
6 4 -4 17 -6 11 -3 13
8 9 -3 20 -4 13 1 16
9 11 -2 22 -3 14 2 17
11 11 -3 22 -4 14 2 17
13 10 -4 21 -5 13 1 16
14 10 -5 21 -5 12 1 16
16 10 -6 21 -6 12 1 16
17 9 -7 20 -7 11 0 15
17 9 -6 20 -7 11 0 15
17 8 -5 21 -6 11 0 15
17 8 -5 21 -6 11 0 15
17 8 -4 21 -6 11 0 15
16 7 -3 22 -5 12 -2 15
16 7 -5 22 -5 12 -2 16
17 8 -6 21 -6 12 0 17
17 9 -7 21 -6 12 1 17
17 9 -9 21 -6 12 1 18
18 10 -10 20 -7 13 2 19
18 10 -10 20 -8 12 1 18
18 9 -10 19 -9 11 0 16
18 9 -10 19 -9 10 0 15
18 9 -10 19 -10 9 -2 14
18 8 -10 18 -11 8 -3 13
20 9 -10 18 -11 8 -3 13
22 10 -11 17 -12 7 -3 13
24 11 -11 17 -13 7 -3 13
26 12 -11 17 -13 7 -3 13
27 13 -12 16 -14 6 -4 14
26 13 -12 16 -14 5 -5 14
24 13 -11 16 -15 4 -6 13
23 13 -11 16 -16 4 -7 12
22 13 -11 16 -16 3 -8 12
21 14 -10 14 -17 2 -9 11
23 14 -11 12 -19 0 -10 10
24 15 -12 10 -21 -3 -12 9
25 15 -12 8 -22 -4 -13 8
27 15 -13 6 -24 -6 -14 7
28 16 -14 5 -25 -7 -15 6
26 16 -14 4 -25 -8 -16 5
25 15 -15 3 -26 -10 -17 4
24 15 -15 2 -26 -11 -18 4
22 15 -15 1 -26 -12 -19 3
21 14 -16 0 -27 -13 -20 2
19 14 -16 -2 -29 -15 -22 1
17 13 -16 -3 -30 -17 -23 0
16 12 -16 -4 -31 -18 -24 -2
14 12 -16 -5 -33 -20 -26 -3
13 11 -17 -6 -34 -21 -27 -4
13 13 -15 -5 -34 -21 -27 -4
13 15 -13 -4 -35 -20 -27 -3
13 16 -11 -3 -35 -19 -27 -3
13 18 -9 -2 -35 -19 -27 -3
12 19 -8 0 -36 -18 -26 -2
12 19 -8 0 -35 -18 -26 -2
12 18 -7 0 -34 -18 -26 -3
12 18 -7 0 -33 -18 -26 -3
12 18 -7 0 -32 -18 -26 -3
13 17 -6 -2 -31 -17 -27 -4
11 15 -6 -2 -31 -16 -27 -5
9 14 -6 -2 -31 -15 -27 -6
7 13 -6 -2 -31 -15 -27 -7
5 11 -6 -2 -31 -14 -27 -8
4 10 -6 -3 -31 -13 -26 -9
5 10 -6 -2 -27 -12 -24 -9
7 10 -5 1 -23 -11 -23 -8
8 10 -5 2 -20 -11 -22 -8
9 10 -5 3 -16 -10 -20 -8
9 10 -4 4 -13 -9 -19 -7
6 7 -4 4 -10 -9 -20 -8
3 4 -4 3 -7 -9 -21 -9
0 2 -4 2 -4 -9 -22 -10
-4 -2 -4 2 0 -9 -23 -11
-6 -4 -3 1 2 -9 -24 -12
-5 -2 -3 1 3 -8 -23 -11
-3 1 -2 1 5 -7 -22 -10
-2 3 -2 1 6 -7 -22 -10
0 5 -2 1 7 -6 -21 -9
1 6 0 2 8 -5 -20 -8
1 6 0 2 8 -5 -20 -8
1 6 1 3 8 -5 -19 -8
1 6 2 3 8 -5 -19 -8
1 6 2 3 8 -5 -19 -8
0 6 3 4 7 -4 -18 -7
0 6 3 4 7 -4 -18 -7
0 6 3 4 7 -4 -18 -7
-2 6 3 4 7 -4 -18 -7
-2 6 3 4 7 -4 -18 -7
-3 5 2 4 8 -3 -18 -7
-4 3 2 4 7 -3 -18 -8
-5 2 2 4 7 -3 -19 -8
-6 0 1 4 6 -4 -20 -9
-7 -3 1 4 5 -4 -20 -10
-8 -4 0 3 4 -5 -21 -11
-7 -3 1 3 4 -5 -21 -10
-7 -2 1 3 4 -5 -20 -9
-6 1 2 4 4 -4 -19 -8
-5 2 3 4 4 -4 -19 -7
-4 3 4 5 4 -3 -18 -6
-3 4 4 5 4 -2 -18 -6
-3 5 5 5 4 -2 -18 -6
-2 6 6 6 5 0 -18 -6
0 7 6 6 5 1 -18 -6
1 8 7 7 6 2 -17 -7
1 6 6 7 6 2 -17 -7
1 5 5 7 5 2 -17 -7
0 4 4 7 4 1 -17 -7
0 2 3 7 4 1 -17 -7
-2 1 2 7 3 0 -17 -7
0 3 3 7 4 2 -16 -7
0 4 4 8 5 3 -15 -6
1 5 6 9 7 4 -13 -5
2 7 7 9 8 6 -12 -5
3 8 8 10 9 7 -11 -4
2 7 8 10 9 7 -11 -4
2 6 8 11 9 7 -11 -4
1 5 8 12 9 7 -11 -4
0 4 8 12 9 7 -11 -4
-2 3 9 13 8 6 -12 -3
0 3 9 13 8 6 -12 -3
0 3 9 13 8 6 -13 -4
1 3 9 13 8 6 -14 -5
2 3 9 13 8 6 -14 -5
3 4 8 12 7 5 -15 -6
2 4 9 12 7 6 -13 -5
2 5 10 13 8 7 -12 -4
1 6 11 14 9 8 -11 -2
0 6 12 14 9 9 -9 0
-2 7 13 15 10 10 -8 1
-2 7 13 15 10 10 -8 1
0 7 13 14 10 9 -8 1
1 7 13 13 10 8 -8 1
1 7 13 13 10 8 -8 1
2 8 12 12 9 7 -9 0
1 6 12 11 8 7 -9 0
1 5 12 11 7 7 -9 0
0 3 11 10 5 6 -10 0
-2 1 11 9 4 6 -10 0
-3 0 10 8 3 5 -11 -2
-3 0 10 8 3 5 -11 -2
-4 0 10 8 3 5 -11 -2
-5 0 11 9 3 6 -11 -2
-5 0 11 9 3 6 -11 -2
-6 1 12 10 4 7 -10 -2
-3 1 12 10 4 7 -10 -3
0 2 12 10 4 6 -11 -3
2 3 12 10 4 5 -12 -4
4 3 12 10 4 5 -12 -5
5 4 11 9 3 4 -13 -6
3 3 11 8 3 4 -13 -6
1 2 10 7 3 4 -13 -6
-3 0 9 5 3 3 -13 -6
-5 -2 9 4 3 3 -13 -6
-7 -3 8 3 2 2 -14 -6
-5 0 8 4 2 2 -14 -6
-4 2 9 4 2 2 -14 -6
-3 4 10 5 3 3 -14 -5
0 5 10 6 3 3 -14 -5
1 7 11 7 4 4 -13 -4
1 6 11 6 3 2 -14 -6
1 5 11 6 3 1 -15 -7
1 4 10 5 2 0 -17 -8
1 3 10 4 1 -3 -18 -10
0 2 9 3 0 -4 -19 -11
0 3 9 3 0 -4 -19 -10
1 3 9 3 0 -4 -19 -10
2 4 10 3 0 -3 -18 -9
2 5 10 3 0 -3 -18 -8
3 6 11 3 0 -2 -17 -7
1 3 11 2 0 -3 -18 -7
-2 1 11 2 -2 -3 -19 -8
-4 -2 10 1 -3 -4 -20 -9
-5 -4 10 0 -3 -5 -21 -9
-7 -6 9 -2 -4 -6 -22 -10
-6 -5 9 -2 -5 -6 -22 -10
-5 -4 9 -2 -5 -6 -22 -10
-4 -2 9 -2 -6 -7 -23 -10
-3 0 9 -2 -7 -7 -23 -10
-2 1 8 0 -8 -8 -24 -11
-2 0 8 0 -8 -8 -24 -11
-2 0 7 -2 -8 -8 -24 -11
-3 -2 6 -3 -7 -8 -24 -11
-3 -3 6 -3 -7 -8 -24 -11
-4 -4 5 -4 -6 -9 -24 -10
-4 -3 6 -3 -5 -9 -23 -10
-4 -2 6 -3 -5 -9 -23 -10
-4 1 7 -2 -4 -9 -22 -10
-4 2 8 0 -3 -9 -21 -10
-5 3 9 1 -2 -8 -20 -9
-6 3 8 1 0 -7 -20 -9
-7 2 7 0 2 -7 -20 -9
-9 1 6 -2 3 -6 -20 -10
-10 1 5 -2 5 -5 -20 -10
-11 0 4 -3 6 -4 -19 -11
-10 0 4 -3 6 -5 -20 -11
-9 0 4 -3 6 -5 -21 -11
-7 0 5 -3 6 -6 -22 -11
-6 0 5 -3 6 -7 -23 -11
-5 -2 6 -4 5 -8 -24 -12
-5 -2 6 -4 5 -8 -24 -12
-4 0 5 -4 5 -8 -24 -12
-3 1 4 -4 5 -8 -24 -13
-3 1 4 -4 5 -8 -24 -13
-2 2 3 -5 6 -9 -24 -14
-2 2 3 -5 6 -9 -24 -14
0 2 3 -5 6 -9 -24 -14
1 2 3 -5 6 -9 -25 -14
1 2 3 -5 6 -9 -25 -14
1 3 4 -5 7 -10 -26 -13
-2 1 4 -5 7 -10 -26 -14
-5 0 4 -5 7 -10 -27 -14
-8 -3 4 -5 7 -11 -28 -15
-11 -5 4 -5 7 -11 -28 -16
-13 -6 5 -5 7 -12 -28 -17
-10 -6 5 -6 7 -12 -24 -16
-8 -5 5 -7 6 -12 -21 -14
-5 -4 5 -8 5 -12 -17 -13
-3 -4 5 -9 5 -12 -14 -11
0 -3 5 -10 4 -11 -11 -10
0 -2 5 -9 5 -11 -9 -10
-2 0 5 -8 5 -11 -7 -9
-3 2 5 -6 6 -10 -5 -8
-3 3 5 -5 7 -10 -4 -8
-4 4 6 -4 8 -9 -2 -7
-4 3 6 -4 8 -9 -2 -7
-5 2 6 -4 8 -9 -2 -7
-6 1 6 -5 8 -9 0 -7
-6 0 6 -5 8 -9 0 -7
-7 -2 6 -6 9 -10 1 -8
-7 -2 6 -6 9 -10 1 -8
-7 -2 6 -6 9 -10 1 -8
-7 -3 6 -5 9 -10 0 -8
-7 -3 6 -5 9 -10 0 -8
-8 -4 5 -4 10 -10 -2 -8
-8 -5 5 -5 9 -11 -3 -9
-8 -6 4 -5 8 -11 -4 -9
-8 -7 3 -6 7 -12 -5 -10
-8 -8 3 -7 6 -13 -6 -11
-9 -9 2 -8 5 -14 -7 -12
-9 -9 2 -8 5 -14 -7 -12
-9 -9 2 -8 5 -13 -7 -12
-9 -9 2 -8 6 -12 -6 -11
-9 -9 2 -8 6 -12 -6 -11
-10 -8 3 -7 7 -11 -5 -10
-10 -8 2 -7 7 -9 -5 -10
-10 -8 2 -7 7 -8 -5 -10
-10 -8 1 -7 7 -6 -5 -10
-10 -8 0 -7 7 -5 -5 -10
-11 -9 -2 -8 6 -3 -4 -9
-11 -8 0 -8 6 -2 -4 -9
-10 -7 2 -7 7 0 -4 -9
-9 -5 3 -6 8 1 -4 -9
-9 -4 5 -6 8 2 -4 -9
-8 -3 6 -5 9 3 -4 -9
-8 -3 6 -5 9 3 -4 -9
-8 -4 6 -5 8 3 -4 -9
-8 -5 5 -6 7 4 -4 -9
-8 -5 5 -6 7 4 -4 -9
-7 -6 4 -7 6 5 -3 -8
-9 -7 4 -8 6 4 -4 -9
-10 -9 4 -9 5 3 -5 -10
-12 -10 3 -10 4 2 -6 -11
-13 -12 3 -11 4 1 -7 -12
-15 -13 2 -12 3 0 -8 -13
-13 -10 2 -11 3 0 -8 -13
-11 -7 3 -10 4 0 -7 -12
-9 -4 4 -8 5 1 -6 -11
-7 0 4 -7 5 1 -6 -11
-5 2 5 -6 6 2 -5 -10
-6 1 5 -6 6 2 -5 -10
-7 1 4 -6 6 2 -4 -9
-8 0 3 -6 5 1 -3 -8
-9 -2 3 -6 5 1 -3 -8
-10 -3 2 -6 4 0 -2 -7
-11 -5 2 -6 4 0 -3 -7
-12 -8 2 -7 4 0 -4 -7
-14 -10 2 -8 3 0 -5 -8
-15 -12 2 -8 3 0 -6 -8
-16 -14 1 -9 2 -2 -7 -9
-15 -13 1 -9 2 -2 -7 -9
-15 -12 1 -9 2 -2 -7 -9
-14 -11 1 -9 2 -2 -7 -9
-13 -10 1 -9 2 -2 -7 -9
-12 -9 1 -9 1 -2 -6 -10
-11 -8 1 -9 1 -2 -6 -10
-10 -7 1 -9 1 -2 -6 -10
-8 -5 1 -9 1 0 -5 -9
-7 -4 1 -9 1 0 -5 -9
-6 -3 2 -8 1 1 -4 -8
-8 -4 2 -8 1 1 -4 -8
-9 -5 1 -8 0 1 -5 -8
-11 -6 1 -9 0 0 -5 -9
-12 -8 0 -9 -2 0 -6 -9
-13 -8 -2 -10 -3 -2 -7 -10
-10 -4 2 -8 0 1 -5 -8
-7 1 4 -5 2 3 -3 -7
-4 5 6 -3 4 5 -2 -5
0 9 9 0 6 7 1 -4
3 12 11 2 8 9 3 -2
1 10 11 2 8 8 3 -2
-2 8 10 1 7 8 3 -3
-4 7 10 1 7 7 2 -3
-6 5 9 0 6 6 2 -4
-8 3 8 -2 5 5 1 -5
-8 4 8 -2 5 5 1 -5
-7 4 8 -2 5 6 1 -5
-7 5 8 0 6 6 2 -4
-6 6 8 0 6 7 2 -4
-5 7 9 1 7 8 3 -3
-6 7 10 2 7 8 3 -2
-6 7 10 2 7 9 4 0
-7 7 11 3 8 9 4 1
-8 7 12 4 8 10 5 2
-9 7 13 5 9 11 6 3
-7 8 12 5 9 11 7 4
-6 9 11 5 9 11 8 5
-4 10 10 5 9 12 9 6
-3 11 9 5 9 12 11 7
0 12 8 4 10 13 12 8
0 12 6 3 9 13 12 8
0 12 4 2 7 13 12 8
0 12 2 1 6 13 11 8
0 12 0 -2 4 13 11 8
0 13 -3 -3 3 12 10 7
1 13 -3 -4 2 11 9 6
2 13 -4 -5 0 9 8 5
3 13 -4 -6 -2 8 7 4
5 13 -5 -7 -4 6 5 3
6 13 -6 -8 -5 5 4 2
6 13 -6 -8 -5 5 4 2
6 12 -6 -9 -5 5 4 2
5 12 -6 -9 -6 5 3 2
5 11 -6 -10 -6 5 3 2
3 10 -7 -11 -7 6 2 1
0 8 -8 -11 -7 5 2 0
-4 6 -8 -11 -7 4 2 0
-8 5 -9 -11 -7 3 2 -2
-11 3 -10 -11 -7 2 2 -3
-14 1 -11 -10 -6 1 3 -4
-14 1 -11 -10 -6 0 2 -5
-13 1 -10 -11 -7 0 0 -6
-13 1 -10 -11 -7 -2 -2 -7
-12 1 -9 -12 -8 -3 -4 -8
-11 1 -8 -13 -9 -4 -5 -9
-10 0 -8 -13 -9 -4 -5 -9
-9 -2 -8 -13 -9 -4 -5 -10
-8 -3 -8 -13 -9 -4 -6 -10
-7 -5 -8 -13 -9 -4 -6 -11
-6 -6 -7 -13 -10 -5 -7 -12
-9 -9 -7 -10 -10 -6 -8 -13
-12 -11 -7 -7 -11 -7 -8 -14
-15 -13 -8 -4 -11 -8 -9 -15
-18 -16 -8 -2 -12 -9 -10 -16
-21 -18 -9 2 -13 -10 -11 -17
-19 -18 -8 4 -13 -10 -11 -17
-16 -17 -7 6 -13 -10 -11 -16
-14 -17 -6 8 -12 -9 -10 -16
-12 -16 -5 10 -12 -9 -10 -15
-11 -15 -4 12 -11 -8 -9 -14
-14 -18 -3 16 -10 -8 -11 -17
-18 -21 -2 19 -9 -9 -14 -20
-21 -24 0 22 -8 -9 -16 -23
-25 -26 2 25 -6 -10 -18 -26
-28 -29 5 31 -2 -8 -18 -28
-28 -28 13 45 12 4 -10 -24
-27 -28 21 58 25 15 -2 -20
-27 -27 29 70 38 27 7 -15
-26 -26 38 84 52 38 16 -11
-22 -25 47 100 68 55 29 -2
-11 -22 56 126 92 82 56 18
1 -20 66 150 115 110 82 37
12 -17 75 176 139 138 109 57
23 -14 86 200 162 165 136 76
35 -9 92 220 183 192 165 100
51 5 85 223 192 219 202 133
66 18 78 226 201 244 239 167
81 31 71 229 212 270 276 199
97 45 64 232 221 297 313 233
109 57 53 222 217 305 335 256
109 68 27 167 173 260 311 247
108 78 2 112 129 215 287 239
108 89 -24 57 85 171 264 230
107 100 -50 3 40 126 240 222
101 107 -73 -50 -5 77 204 203
81 99 -92 -97 -52 19 136 156
62 92 -109 -144 -100 -39 66 109
42 85 -128 -191 -147 -97 -3 62
22 77 -145 -238 -195 -155 -71 16
7 67 -159 -270 -229 -198 -123 -21
3 50 -156 -253 -220 -190 -122 -29
-2 32 -154 -235 -211 -183 -121 -37
-6 15 -152 -218 -201 -176 -120 -45
-10 -3 -149 -199 -192 -169 -119 -53
-13 -16 -143 -180 -180 -158 -115 -58
-12 -17 -122 -153 -156 -139 -102 -53
-11 -19 -102 -126 -133 -118 -89 -47
-10 -21 -82 -99 -109 -99 -75 -41
-9 -22 -62 -71 -87 -79 -62 -36
-8 -24 -46 -49 -66 -62 -51 -31
-8 -21 -37 -39 -56 -54 -44 -27
-8 -18 -29 -30 -46 -46 -36 -23
-8 -15 -22 -21 -35 -36 -29 -19
-8 -12 -14 -12 -25 -28 -23 -15
-9 -9 -8 -5 -17 -21 -17 -11
-11 -10 -8 -5 -17 -21 -18 -12
-13 -12 -8 -6 -17 -22 -19 -13
-15 -14 -8 -6 -18 -23 -20 -14
-17 -15 -8 -7 -18 -24 -22 -16
-19 -17 -9 -8 -19 -25 -23 -17
-18 -17 -8 -6 -16 -23 -22 -17
-17 -17 -6 -4 -14 -21 -20 -16
-16 -16 -4 0 -11 -20 -19 -15
-14 -16 -3 2 -8 -18 -18 -14
-13 -15 0 4 -6 -16 -16 -13
-13 -15 0 4 -6 -16 -16 -13
-14 -16 0 4 -6 -16 -16 -13
-14 -17 0 4 -6 -16 -17 -13
-15 -18 0 4 -6 -16 -17 -13
-16 -19 1 4 -6 -17 -18 -12
-16 -19 1 5 -4 -17 -18 -12
-16 -18 2 7 -2 -16 -18 -12
-15 -18 2 9 0 -15 -18 -13
-15 -17 3 10 2 -14 -18 -13
-14 -16 4 12 4 -13 -17 -14
-13 -15 4 12 4 -13 -17 -14
-12 -14 4 11 3 -13 -17 -13
-11 -13 4 10 3 -13 -17 -12
-10 -11 4 9 2 -13 -17 -11
-9 -10 3 8 1 -14 -16 -10
-9 -10 3 9 2 -13 -15 -10
-9 -10 4 11 4 -12 -14 -9
-9 -10 4 12 6 -11 -13 -9
-9 -10 5 13 7 -9 -12 -8
-10 -11 6 15 9 -8 -11 -7
-9 -11 6 15 9 -8 -11 -6
-8 -11 6 15 9 -8 -11 -5
-7 -11 6 15 10 -8 -10 -4
-6 -11 6 15 10 -8 -10 -2
-5 -10 7 15 11 -8 -9 0
-4 -10 7 15 11 -8 -9 0
-3 -10 7 15 11 -8 -9 0
-2 -10 7 15 12 -8 -9 -2
0 -10 7 15 12 -8 -9 -2
1 -9 6 14 13 -8 -10 -3
1 -9 6 14 13 -8 -10 -3
0 -9 6 14 14 -8 -10 -3
0 -9 6 13 14 -8 -10 -2
-2 -9 6 13 15 -8 -10 -2
-3 -10 7 12 16 -8 -9 0
-5 -11 7 13 16 -8 -9 0
-7 -12 7 14 16 -8 -9 0
-9 -13 7 15 16 -7 -9 0
-11 -14 7 17 16 -7 -9 0
-13 -15 7 18 15 -6 -10 0
-13 -15 7 18 15 -6 -10 0
-12 -15 6 17 15 -6 -11 0
-12 -15 5 16 15 -6 -11 0
-11 -15 4 15 15 -6 -12 0
-10 -16 3 14 16 -7 -13 1
-9 -16 3 14 16 -7 -13 1
-8 -16 4 14 16 -7 -13 2
-7 -16 4 14 16 -7 -12 2
-5 -16 5 14 16 -7 -12 3
-4 -17 6 14 17 -8 -11 4
-3 -12 6 16 19 -8 -9 6
0 -7 7 18 21 -7 -7 9
2 -2 8 20 24 -6 -5 11
3 4 9 22 26 -5 -3 14
5 9 10 24 28 -4 0 16
5 6 10 23 27 -4 -2 15
5 3 10 22 26 -4 -3 13
4 0 9 21 25 -4 -4 11
4 -4 9 20 23 -4 -5 10
3 -7 8 19 22 -3 -6 8
4 -7 8 19 22 -3 -6 9
5 -7 7 19 23 -3 -6 10
6 -6 7 19 24 -3 -5 11
7 -6 6 19 25 -3 -5 12
8 -5 5 19 26 -2 -4 13
8 -5 5 19 26 -2 -4 13
9 -5 4 19 26 -2 -4 13
10 -5 4 19 26 -2 -4 14
11 -5 3 19 26 -2 -4 14
12 -5 2 18 25 -2 -4 15
13 -4 2 18 26 -2 -4 16
15 -2 3 19 27 0 -3 18
17 0 4 20 28 1 -2 19
18 1 5 21 29 2 0 20
20 3 6 22 30 3 1 22
20 3 6 22 30 3 1 22
20 2 6 22 31 3 1 21
19 1 6 22 32 2 0 21
19 0 6 22 33 2 0 20
18 -2 5 23 34 1 -2 19
18 -2 4 23 33 1 -2 19
17 -2 3 22 31 1 -2 20
16 -2 2 22 29 1 -2 20
15 -2 0 21 28 1 -2 21
14 -3 -2 20 26 1 -2 22
14 -3 -2 20 26 1 -2 22
14 -4 -2 20 26 1 -2 22
13 -4 0 19 26 1 -2 22
13 -5 0 19 26 1 -2 22
12 -6 1 18 27 0 -3 21
14 -6 1 18 27 -2 -3 21
16 -7 1 18 26 -3 -4 21
18 -7 1 17 26 -4 -5 22
21 -8 1 17 25 -5 -6 22
23 -9 1 16 24 -6 -7 23
21 -7 0 14 23 -8 -9 22
19 -4 -2 13 22 -10 -11 21
17 -2 -3 11 21 -12 -13 20
14 1 -4 9 20 -14 -15 19
12 4 -6 7 18 -16 -17 18
13 4 -6 7 18 -16 -17 18
14 4 -5 8 19 -15 -16 19
15 4 -4 8 20 -15 -16 20
16 4 -3 9 21 -14 -15 21
17 3 -2 10 22 -13 -14 22
17 3 -2 9 21 -14 -15 21
17 3 -2 7 19 -16 -17 19
18 3 -2 6 18 -17 -19 18
18 3 -2 5 17 -18 -20 17
19 2 -2 3 15 -20 -22 15
18 2 -2 3 15 -20 -22 15
17 2 -2 2 14 -21 -23 15
16 3 -2 2 14 -22 -24 15
15 3 -2 1 13 -23 -25 15
14 4 -2 0 12 -24 -26 15
13 4 -2 0 12 -24 -27 14
12 3 0 0 12 -25 -28 13
10 2 1 0 12 -26 -29 12
9 1 2 0 12 -27 -30 11
7 0 3 -2 12 -28 -32 10
7 0 4 -2 12 -28 -32 10
7 0 5 -2 12 -28 -32 9
7 0 6 -3 12 -28 -33 9
7 0 7 -3 12 -28 -33 8
8 1 8 -4 13 -28 -34 7
7 0 8 -4 14 -26 -33 8
6 -2 8 -3 15 -25 -31 9
4 -3 8 -3 16 -23 -29 10
3 -4 8 -2 17 -21 -28 11
1 -6 7 0 19 -19 -26 13
1 -6 7 0 19 -19 -26 13
0 -6 8 0 19 -19 -26 13
-2 -6 9 0 19 -19 -25 13
-3 -6 10 0 19 -19 -25 13
-4 -7 11 0 19 -18 -24 14
-4 -7 11 0 19 -18 -24 14
-4 -7 11 0 19 -17 -24 14
-4 -7 11 0 20 -16 -23 13
-4 -7 11 0 20 -15 -23 13
-5 -8 10 0 21 -14 -22 12
-6 -10 9 -2 21 -14 -22 11
-7 -12 8 -3 20 -15 -23 10
-8 -14 7 -4 20 -15 -24 9
-9 -17 6 -5 19 -16 -25 8
-10 -19 5 -7 18 -17 -26 6
-8 -18 5 -7 18 -17 -23 6
-7 -17 6 -6 18 -17 -19 6
-5 -16 7 -5 18 -16 -16 7
-3 -15 8 -4 18 -16 -13 7
0 -13 9 -3 19 -15 -9 8
0 -13 9 -3 19 -15 -9 9
1 -13 10 -3 20 -15 -8 10
2 -13 10 -2 20 -14 -7 11
3 -13 11 -2 21 -14 -6 12
4 -13 12 0 22 -13 -5 13
2 -13 12 0 22 -13 -4 13
0 -13 12 0 21 -13 -3 13
-3 -12 12 0 21 -13 0 13
-6 -12 12 0 20 -13 1 13
-8 -11 12 -2 19 -12 3 12
-7 -10 12 -2 19 -12 4 12
-5 -9 11 -2 19 -12 5 12
-3 -8 11 -3 18 -12 7 12
0 -7 10 -3 18 -12 8 12
2 -6 9 -4 17 -13 10 11
1 -5 9 -4 17 -13 10 11
0 -4 10 -4 17 -13 9 11
-3 -3 10 -3 17 -13 8 12
-4 -2 11 -3 17 -13 7 12
-6 0 12 -2 17 -13 6 13
-6 -2 12 -2 17 -13 6 13
-6 -4 12 -3 17 -13 5 13
-6 -5 12 -3 17 -13 4 13
-6 -7 12 -4 17 -13 3 13
-6 -9 11 -5 16 -14 2 12
-6 -8 11 -4 17 -13 3 12
-6 -6 11 -3 18 -12 4 13
-5 -4 12 -2 19 -11 6 13
-5 -2 12 0 20 -10 7 14
-4 1 13 1 22 -9 9 15
-4 1 12 0 22 -9 9 15
-5 0 11 -2 22 -9 9 15
-5 -2 10 -3 21 -9 9 15
-6 -3 9 -4 21 -9 9 15
-7 -4 8 -5 20 -10 9 16
-7 -4 8 -5 21 -10 9 16
-7 -3 8 -5 22 -9 8 15
-7 -3 8 -5 24 -8 8 15
-7 -2 8 -5 25 -7 7 14
-8 0 8 -5 27 -6 6 13
-8 0 9 -5 26 -7 6 13
-8 0 10 -4 25 -8 7 13
-7 -2 11 -4 24 -9 8 14
-7 -2 12 -3 23 -10 9 14
-6 -3 13 -2 22 -11 10 15
-5 -2 13 -2 23 -11 10 15
-3 1 13 -2 24 -11 10 15
-2 2 14 -2 25 -11 9 15
1 4 14 -2 26 -11 9 15
3 6 15 -2 28 -10 8 15
2 4 14 -3 28 -10 8 15
0 1 13 -4 27 -10 8 14
-3 -2 12 -5 26 -10 8 14
-5 -5 11 -6 25 -10 8 13
-7 -8 9 -8 24 -10 7 12
-7 -8 9 -8 24 -10 7 12
-8 -7 9 -8 24 -10 7 13
-8 -7 10 -8 24 -10 7 14
-9 -6 10 -8 24 -10 7 15
-10 -5 11 -7 23 -10 7 16
-10 -5 11 -7 23 -10 7 16
-9 -4 11 -8 22 -11 7 16
-8 -3 11 -8 22 -11 6 16
-7 -2 11 -9 21 -12 6 16
-6 0 10 -10 20 -13 5 16
-5 0 10 -10 20 -13 5 16
-4 0 10 -10 20 -13 5 15
-3 0 10 -10 20 -13 4 15
-2 0 10 -10 20 -13 4 14
1 1 11 -11 19 -14 3 13
-2 0 11 -12 19 -14 3 13
-4 -2 10 -13 18 -15 3 13
-6 -4 10 -14 17 -16 2 13
-8 -5 9 -15 16 -17 2 13
-11 -7 8 -16 15 -18 1 13
-12 -8 8 -16 15 -18 1 12
-13 -9 8 -16 15 -18 1 11
-14 -11 8 -16 15 -17 1 10
-15 -12 8 -16 15 -17 1 9
-17 -14 7 -17 15 -16 1 8
-17 -13 7 -17 15 -15 0 8
-16 -12 7 -17 14 -14 -2 8
-15 -11 7 -18 13 -13 -3 7
-14 -10 7 -18 12 -12 -4 7
-13 -9 8 -19 11 -11 -5 6
-11 -9 8 -19 11 -10 -5 6
-9 -8 8 -19 12 -9 -4 6
-7 -7 9 -19 12 -7 -4 6
-5 -6 9 -19 13 -6 -3 6
-3 -5 10 -18 14 -4 -2 6
-4 -5 9 -17 14 -5 -2 6
-5 -5 8 -16 14 -6 -3 6
-6 -5 7 -14 13 -7 -4 5
-7 -5 6 -13 13 -8 -5 5
-8 -6 5 -11 12 -9 -6 4
-9 -7 5 -10 12 -9 -6 4
-10 -8 6 -8 12 -9 -6 4
-11 -9 6 -7 11 -9 -6 4
-12 -10 7 -5 11 -9 -6 4
-13 -11 8 -3 10 -9 -6 3
-12 -11 8 -2 10 -9 -6 3
-10 -11 7 0 9 -9 -6 3
-8 -10 7 2 9 -9 -7 2
-6 -10 6 3 8 -9 -7 2
-4 -9 5 5 7 -10 -8 1
-5 -9 5 5 8 -9 -7 1
-6 -8 6 6 9 -8 -6 2
-7 -8 7 6 10 -7 -5 2
-8 -7 8 7 11 -6 -4 3
-10 -6 9 8 13 -4 -3 4
-9 -6 9 6 12 -5 -3 4
-8 -5 8 4 11 -6 -4 4
-7 -5 8 2 10 -7 -5 4
-6 -4 7 0 9 -8 -6 4
-4 -3 6 -3 7 -9 -7 3
-5 -4 6 -4 6 -9 -8 2
-6 -5 6 -5 4 -10 -9 0
-8 -7 5 -7 3 -11 -10 -2
-9 -8 5 -8 1 -12 -11 -4
-11 -10 4 -10 -2 -13 -13 -6
-11 -9 4 -8 -2 -13 -13 -6
-11 -7 4 -5 0 -13 -13 -5
-11 -6 3 -3 0 -13 -14 -5
-11 -4 3 1 1 -13 -14 -4
-10 -2 2 4 2 -13 -15 -3
-10 -2 2 3 2 -13 -15 -3
-10 0 2 2 2 -12 -15 -3
-9 0 2 0 2 -12 -14 -4
-9 1 2 -2 2 -11 -14 -4
-8 2 1 -4 1 -10 -13 -5
-9 2 1 -4 1 -10 -13 -5
-10 2 1 -4 0 -11 -14 -5
-11 2 1 -5 0 -11 -14 -5
-12 2 1 -5 -2 -12 -15 -5
-13 3 0 -6 -3 -13 -16 -5
-13 3 0 -6 -3 -13 -16 -5
-13 3 0 -6 -3 -12 -15 -5
-14 3 1 -6 -3 -12 -14 -4
-14 3 1 -6 -3 -11 -13 -4
-15 3 2 -7 -2 -10 -12 -3
-15 1 2 -6 -2 -10 -12 -3
-16 -2 2 -5 -3 -11 -11 -4
-16 -4 2 -3 -4 -12 -11 -5
-17 -6 2 -2 -5 -13 -10 -6
-17 -8 2 0 -5 -13 -10 -6
-16 -8 2 1 -6 -14 -8 -8
-14 -7 2 0 -6 -14 -7 -9
-12 -5 2 -2 -6 -14 -5 -10
-10 -4 2 -3 -6 -14 -4 -11
-8 -3 2 -4 -6 -14 -3 -12
-7 -2 3 -5 -5 -13 -2 -13
-7 0 3 -4 -4 -13 0 -12
-7 1 4 -3 -4 -12 1 -12
-7 2 4 -2 -3 -12 2 -11
-7 2 4 0 -3 -12 2 -11
-7 3 5 1 -2 -11 2 -10
-8 2 4 1 -3 -11 1 -10
-9 1 3 0 -4 -11 0 -11
-10 0 2 0 -5 -11 -2 -11
-10 -2 1 0 -5 -11 -3 -11
-11 -5 0 -2 -6 -12 -4 -12
-12 -8 0 -3 -6 -12 -4 -12
-12 -10 0 -4 -6 -13 -5 -12
-13 -13 0 -5 -6 -13 -5 -12
-13 -15 0 -6 -6 -13 -5 -12
-14 -14 1 -7 -7 -14 -6 -13
-13 -12 1 -6 -7 -13 -5 -12
-12 -9 1 -6 -7 -12 -5 -12
-11 -7 1 -5 -7 -11 -4 -11
-11 -5 1 -5 -7 -11 -4 -11
-9 -4 1 -4 -8 -10 -3 -10
-8 -3 1 -4 -8 -10 -3 -10
-7 -2 1 -4 -7 -10 -3 -10
-6 0 1 -4 -7 -10 -3 -10
-5 1 1 -4 -7 -10 -3 -10
-5 1 2 -4 -6 -10 -3 -10
-6 0 1 -5 -7 -11 -4 -11
-8 -2 1 -5 -8 -11 -5 -12
-9 -3 0 -6 -9 -12 -6 -13
-10 -4 0 -6 -9 -12 -6 -14
-11 -5 -2 -5 -10 -13 -5 -15
-12 -4 -2 -3 -10 -13 -3 -15
-12 -4 -2 1 -10 -12 1 -14
-13 -3 -2 3 -10 -12 3 -14
-13 -3 -2 5 -10 -12 5 -14
-14 -2 0 5 -9 -11 5 -13
-14 -3 1 3 -9 -11 3 -12
-14 -3 2 1 -9 -10 2 -11
-14 -4 3 -2 -9 -10 0 -10
-14 -4 3 -3 -9 -10 -2 -10
-14 -5 4 -4 -8 -9 -3 -9
-13 -5 4 -4 -9 -10 -3 -9
-12 -4 3 -4 -9 -10 -3 -10
-11 -4 3 -4 -10 -11 -3 -10
-10 -4 3 -4 -10 -11 -3 -10
-8 -3 2 -3 -11 -12 -3 -11
-7 -4 2 -3 -11 -12 -3 -11
-6 -5 2 -3 -10 -11 -3 -11
-5 -6 2 -3 -10 -11 -3 -11
-4 -6 2 -3 -10 -11 -3 -11
-5 -7 2 -4 -9 -10 -4 -11
-7 -7 2 -5 -10 -11 -4 -11
-9 -7 1 -7 -11 -12 -4 -11
-11 -7 1 -8 -12 -13 -4 -11
-13 -7 1 -9 -13 -13 -4 -11
-14 -7 0 -8 -14 -14 -4 -10
-14 -7 1 -5 -13 -13 -3 -10
-14 -7 2 -2 -12 -12 -3 -9
-14 -7 3 2 -11 -11 -2 -9
-14 -7 3 4 -10 -11 -2 -9
-11 -5 5 5 -9 -10 0 -8
-8 -2 6 5 -8 -9 1 -8
-5 2 7 5 -7 -8 1 -7
-2 5 8 5 -6 -7 2 -7
1 8 9 5 -6 -6 2 -7
2 9 10 4 -5 -5 3 -6
2 8 9 3 -5 -6 2 -6
2 7 9 2 -5 -6 2 -7
2 6 8 1 -5 -7 1 -7
2 5 8 1 -5 -7 1 -7
1 4 7 0 -6 -8 0 -7
-2 4 8 1 -5 -7 1 -6
-4 4 9 1 -5 -6 1 -4
-6 4 10 2 -4 -5 2 -3
-8 4 10 2 -4 -5 2 -2
-7 6 11 4 -2 -4 4 1
-5 10 12 6 0 -3 5 2
-3 13 13 7 2 -2 6 3
0 16 14 9 3 0 7 4
2 19 15 10 4 1 8 5
3 19 13 10 4 2 9 6
3 17 10 8 2 1 9 6
3 15 6 6 1 1 9 6
3 13 2 4 -2 0 9 6
3 12 -2 2 -3 0 9 6
2 11 -3 0 -4 -2 8 5
3 12 -3 -2 -5 -3 7 4
4 12 -3 -4 -6 -4 7 4
5 13 -3 -5 -7 -5 6 3
5 13 -3 -6 -8 -6 6 3
6 13 -2 -7 -9 -7 5 2
7 12 -3 -7 -10 -7 5 2
7 11 -4 -8 -10 -7 4 2
8 10 -5 -8 -11 -7 4 2
8 9 -5 -8 -11 -7 4 2
8 8 -6 -9 -12 -8 3 3
6 7 -5 -9 -11 -8 3 3
4 7 -4 -9 -11 -8 3 3
2 6 -3 -9 -10 -8 3 3
1 6 -3 -9 -10 -8 3 3
0 4 -2 -10 -10 -8 3 2
-2 3 -3 -12 -12 -9 1 0
-2 2 -3 -13 -13 -11 0 -2
-3 1 -4 -15 -15 -12 -3 -4
-3 0 -4 -16 -16 -13 -4 -5
-5 -3 -5 -17 -17 -14 -5 -6
-7 -4 -4 -17 -17 -15 -6 -7
-9 -5 -3 -17 -17 -15 -6 -7
-11 -6 -2 -17 -17 -16 -7 -8
-12 -7 -2 -17 -17 -16 -7 -8
-14 -9 0 -17 -18 -17 -9 -9
-16 -11 -2 -18 -19 -18 -10 -10
-18 -12 -3 -19 -20 -19 -11 -11
-20 -14 -4 -20 -21 -20 -12 -12
-22 -15 -4 -21 -22 -20 -13 -13
-20 -15 -5 -21 -22 -20 -14 -14
-17 -14 -4 -19 -21 -19 -13 -13
-13 -12 -3 -18 -20 -18 -12 -13
-9 -11 -2 -16 -19 -17 -11 -12
-6 -10 0 -15 -18 -16 -10 -12
-8 -10 1 -14 -18 -15 -9 -12
-11 -13 2 -14 -19 -16 -10 -14
-15 -15 2 -14 -20 -17 -11 -16
-19 -17 3 -14 -21 -18 -12 -18
-22 -19 3 -14 -22 -19 -12 -20
-23 -22 10 -4 -14 -14 -12 -21
-23 -24 17 8 -3 -6 -11 -22
-23 -26 24 19 8 2 -10 -23
-23 -29 31 30 19 10 -9 -24
-23 -31 38 42 29 18 -8 -24
-16 -28 47 63 50 39 14 -11
-6 -23 56 85 70 62 36 6
5 -19 65 106 91 86 60 22
15 -14 74 129 112 108 82 38
24 -9 82 150 133 132 106 56
38 1 85 167 152 163 144 88
52 11 85 183 173 195 184 121
66 21 86 199 192 228 223 155
79 31 86 216 212 261 263 189
94 40 86 232 231 294 303 224
97 55 66 199 212 287 307 235
100 69 43 160 185 275 306 243
102 84 19 120 158 264 305 252
104 99 -5 81 132 252 304 260
106 113 -29 42 105 239 303 268
90 108 -47 -14 51 169 235 225
70 99 -64 -72 -8 90 158 174
50 90 -81 -130 -66 12 81 123
30 80 -99 -188 -124 -67 5 72
10 71 -115 -245 -183 -146 -72 22
6 58 -123 -253 -196 -161 -92 2
4 44 -129 -252 -202 -169 -103 -15
2 30 -135 -249 -208 -175 -114 -30
1 17 -141 -248 -215 -182 -126 -47
-2 3 -147 -247 -221 -189 -137 -62
-5 -3 -136 -224 -203 -175 -129 -62
-8 -7 -120 -197 -182 -155 -115 -59
-12 -12 -106 -172 -159 -137 -102 -55
-15 -16 -91 -145 -138 -117 -90 -52
-18 -20 -75 -118 -115 -99 -76 -48
-18 -21 -64 -99 -101 -86 -67 -43
-17 -20 -53 -81 -87 -73 -58 -37
-16 -19 -40 -64 -73 -61 -49 -32
-15 -18 -29 -46 -59 -49 -39 -27
-14 -18 -18 -28 -45 -36 -30 -22
-12 -16 -15 -23 -41 -33 -27 -20
-11 -15 -13 -20 -39 -31 -25 -19
-10 -13 -11 -17 -37 -29 -23 -17
-9 -12 -10 -14 -35 -27 -21 -16
-8 -11 -8 -11 -33 -25 -19 -15
-8 -11 -7 -8 -31 -24 -18 -14
-10 -13 -7 -5 -30 -24 -18 -15
-12 -15 -7 -3 -29 -24 -19 -15
-14 -17 -7 1 -28 -24 -19 -16
-16 -19 -7 4 -27 -24 -19 -16
-16 -19 -7 7 -25 -23 -20 -17
-14 -18 -6 9 -23 -21 -19 -17
-12 -16 -5 12 -21 -19 -18 -17
-11 -14 -4 15 -20 -18 -17 -17
-9 -13 -3 17 -18 -16 -17 -17
-8 -12 0 19 -17 -15 -16 -17
-9 -11 1 20 -16 -15 -16 -17
-10 -10 2 22 -16 -14 -16 -16
-11 -9 3 24 -15 -14 -16 -16
-12 -9 4 25 -15 -14 -16 -16
-12 -8 5 25 -14 -13 -15 -15
-11 -9 4 23 -14 -13 -15 -15
-10 -10 3 21 -14 -13 -15 -14
-9 -11 2 19 -14 -13 -15 -14
-8 -11 1 17 -14 -13 -15 -14
-5 -11 0 16 -14 -12 -14 -13
-2 -9 1 16 -14 -12 -14 -13
1 -7 1 17 -14 -11 -14 -12
4 -6 2 17 -14 -11 -14 -12
7 -4 2 17 -14 -11 -14 -12
5 -4 3 18 -13 -10 -13 -10
2 -7 2 18 -13 -10 -12 -9
-3 -9 1 18 -13 -10 -11 -8
-6 -11 0 18 -13 -10 -10 -6
-10 -13 0 18 -13 -10 -9 -5
-11 -14 -2 18 -12 -10 -8 -4
-10 -14 -2 17 -12 -10 -9 -6
-10 -14 -3 16 -13 -10 -10 -7
-9 -14 -3 15 -13 -10 -11 -8
-9 -14 -3 14 -13 -10 -12 -9
-8 -15 -4 13 -14 -10 -13 -10
-8 -14 -4 15 -12 -9 -12 -10
-8 -14 -4 16 -11 -8 -11 -9
-8 -13 -4 17 -10 -7 -10 -9
-8 -13 -4 18 -9 -7 -10 -9
-7 -12 -3 19 -8 -6 -9 -8
-7 -13 -3 19 -8 -6 -9 -7
-7 -13 -4 18 -8 -6 -9 -7
-7 -14 -4 18 -8 -6 -9 -6
-7 -14 -4 18 -8 -6 -9 -6
-7 -15 -5 17 -9 -7 -8 -5
-7 -15 -5 17 -8 -6 -7 -5
-8 -15 -4 18 -7 -5 -7 -5
-8 -15 -4 18 -6 -4 -6 -5
-8 -15 -4 18 -5 -3 -6 -5
-7 -13 -3 19 -4 -2 -5 -4
-5 -12 -3 20 -3 0 -5 -3
-2 -10 -2 21 -2 1 -5 -3
1 -8 -2 22 0 2 -5 -2
4 -7 -2 23 1 2 -5 -2
5 -7 0 23 1 3 -4 0
3 -8 -2 22 0 3 -4 0
2 -9 -3 20 -2 3 -4 -2
1 -11 -4 18 -4 3 -4 -2
0 -12 -5 17 -5 3 -4 -2
-2 -13 -6 16 -6 2 -4 -3
-2 -13 -6 17 -5 2 -4 -2
0 -12 -6 17 -5 2 -4 0
0 -12 -6 18 -4 2 -4 1
0 -12 -6 18 -4 2 -4 2
3 -9 -7 19 -3 3 -3 3
6 -6 -7 20 -2 3 -4 2
9 -4 -6 20 0 3 -4 1
12 0 -6 21 1 3 -5 0
15 3 -6 21 1 3 -5 -2
15 4 -5 22 2 3 -5 -2
14 3 -5 23 3 4 -4 1
12 2 -5 24 4 5 -2 3
10 1 -5 25 5 7 1 4
9 1 -5 25 5 8 2 6
7 -2 -5 26 6 9 3 7
6 -3 -6 26 5 9 3 7
4 -5 -6 25 5 10 3 8
2 -7 -7 25 4 10 3 8
1 -8 -7 25 4 10 3 8
1 -9 -8 24 3 11 4 9
3 -8 -9 24 3 11 4 9
5 -8 -10 24 3 10 3 9
6 -7 -11 24 3 10 3 9
8 -7 -11 24 3 10 3 9
10 -5 -12 23 2 9 2 10
11 -2 -11 24 2 10 3 10
13 1 -11 25 3 10 3 10
15 4 -10 26 3 11 4 10
16 6 -10 26 3 11 4 10
15 4 -10 26 4 12 4 11
13 0 -11 25 2 10 3 10
10 -5 -12 24 1 9 2 9
7 -9 -14 22 0 8 0 8
4 -14 -15 21 -2 7 -2 8
4 -14 -16 20 -3 6 -3 7
5 -12 -16 20 -3 6 -3 8
6 -9 -16 21 -3 7 -2 9
8 -7 -16 21 -3 7 -2 10
9 -5 -16 21 -3 7 -2 10
12 -2 -17 22 -3 8 0 11
14 1 -16 22 -3 8 0 11
17 4 -16 22 -3 7 0 11
20 6 -15 22 -3 7 0 11
23 9 -15 22 -3 7 0 11
24 9 -14 20 -2 5 -3 11
22 8 -16 18 -4 3 -5 10
21 7 -17 17 -5 1 -8 9
20 5 -18 15 -6 -2 -10 7
19 4 -19 13 -7 -4 -12 6
17 3 -20 12 -8 -6 -13 5
16 3 -19 11 -9 -7 -15 4
15 3 -18 10 -10 -8 -16 3
13 3 -17 9 -11 -10 -17 2
12 3 -16 8 -12 -11 -18 1
11 4 -15 6 -14 -13 -20 0
11 4 -15 4 -16 -15 -21 -3
11 4 -14 1 -19 -16 -22 -4
11 4 -14 -2 -21 -18 -24 -5
11 4 -14 -4 -23 -20 -25 -6
10 3 -13 -5 -24 -21 -26 -7
9 2 -12 -4 -23 -21 -27 -8
8 2 -11 -4 -22 -21 -28 -8
6 1 -10 -3 -21 -21 -29 -9
5 1 -9 -3 -20 -21 -29 -9
2 0 -7 -2 -19 -20 -30 -10
0 -2 -5 -3 -20 -20 -30 -10
-4 -3 -4 -4 -21 -21 -31 -10
-7 -4 -2 -5 -22 -21 -31 -10
-10 -5 1 -5 -23 -21 -31 -10
-11 -6 4 -6 -23 -21 -32 -11
-10 -6 7 -5 -21 -20 -32 -11
-10 -5 10 -4 -20 -19 -32 -11
-9 -5 14 -3 -18 -17 -32 -11
-9 -5 17 -3 -16 -16 -32 -11
-7 -4 18 -2 -15 -14 -31 -12
-6 -4 18 0 -14 -13 -29 -11
-4 -3 18 1 -13 -12 -28 -10
-3 -3 18 1 -12 -10 -26 -10
0 -3 18 2 -11 -9 -24 -9
0 -2 19 4 -10 -8 -23 -8
-3 -2 20 5 -8 -7 -23 -8
-4 -3 22 6 -7 -6 -22 -9
-6 -3 23 8 -6 -5 -22 -9
-8 -3 25 9 -5 -4 -22 -9
-9 -4 26 9 -4 -3 -21 -10
-9 -5 25 8 -5 -3 -21 -10
-9 -6 24 6 -5 -3 -20 -10
-9 -6 24 5 -6 -3 -20 -10
-9 -7 23 3 -6 -3 -20 -10
-9 -8 22 2 -7 -3 -19 -10
-9 -9 22 3 -7 -3 -19 -10
-8 -9 22 3 -7 -2 -18 -10
-8 -10 22 4 -7 -2 -18 -10
-8 -10 22 4 -7 -2 -18 -10
-7 -11 21 5 -6 0 -17 -9
-7 -11 21 5 -6 0 -16 -9
-7 -11 20 5 -7 1 -16 -9
-7 -11 20 5 -7 1 -15 -9
-7 -11 20 5 -7 1 -15 -9
-8 -10 19 5 -8 2 -14 -8
-9 -10 19 6 -7 3 -13 -8
-11 -10 20 6 -7 3 -12 -8
-12 -10 20 7 -6 4 -11 -8
-14 -10 20 7 -6 4 -10 -8
-15 -10 21 7 -5 5 -8 -9
-13 -10 20 6 -6 5 -7 -9
-12 -11 19 5 -7 4 -5 -8
-11 -11 18 3 -7 4 -4 -8
-10 -11 17 2 -8 4 -2 -8
-9 -12 16 2 -9 3 0 -7
-9 -12 17 3 -8 4 1 -7
-9 -12 18 4 -7 4 2 -7
-9 -12 19 6 -7 5 3 -7
-9 -12 20 7 -6 5 4 -7
-10 -12 21 8 -5 6 5 -7
-11 -14 20 6 -5 6 5 -7
-12 -15 20 5 -6 6 5 -7
-13 -16 19 4 -6 6 5 -7
-14 -17 19 3 -6 6 5 -7
-13 -17 18 2 -7 6 4 -8
-10 -14 19 4 -6 8 5 -7
-6 -12 19 5 -5 9 6 -6
-3 -10 20 6 -5 10 7 -5
2 -7 20 7 -4 11 8 -4
2 -7 21 8 -3 12 9 -3
-2 -10 19 7 -4 11 8 -4
-4 -12 18 6 -4 11 8 -4
-6 -14 17 6 -5 10 7 -5
-9 -17 16 5 -5 10 7 -5
-10 -17 15 4 -6 9 6 -6
-9 -15 17 5 -5 10 6 -6
-8 -14 18 6 -4 11 6 -6
-7 -12 19 7 -4 11 6 -6
-6 -10 20 8 -3 12 6 -6
-5 -9 21 9 -2 13 7 -6
-4 -8 21 9 -2 14 8 -6
-4 -8 20 9 -2 15 9 -5
-3 -7 20 9 -2 15 10 -5
-3 -7 20 9 -2 16 11 -5
-2 -6 19 9 -2 17 12 -4
-3 -6 19 9 -2 17 12 -4
-4 -7 18 9 -2 16 11 -5
-5 -7 18 9 -2 16 11 -5
-6 -7 18 9 -2 16 11 -5
-7 -8 17 8 -2 15 10 -6
-7 -9 17 8 -2 15 9 -6
-7 -10 17 8 -3 15 8 -6
-7 -11 17 8 -3 15 8 -6
-7 -12 17 8 -3 15 7 -6
-8 -13 16 7 -4 14 6 -7
-10 -15 16 7 -4 12 5 -9
-11 -16 16 6 -4 11 4 -10
-12 -18 16 6 -4 10 4 -11
-13 -19 16 6 -4 9 3 -12
-14 -20 17 5 -5 8 2 -13
-14 -20 16 4 -6 8 3 -12
-14 -19 15 3 -6 9 3 -11
-14 -19 14 2 -7 9 4 -11
-14 -19 13 1 -7 9 4 -10
-12 -16 13 0 -8 10 5 -9
-8 -13 15 1 -7 11 5 -8
-4 -9 16 2 -6 12 6 -8
0 -6 18 3 -6 12 6 -7
4 -3 20 4 -5 13 6 -7
4 -3 21 5 -4 14 7 -6
0 -6 19 3 -5 12 5 -8
-4 -9 18 2 -6 11 4 -9
-8 -12 17 0 -7 10 3 -11
-11 -15 16 -2 -8 9 2 -12
-13 -16 15 -3 -9 8 1 -13
-12 -17 14 -3 -9 8 0 -14
-11 -17 14 -4 -10 7 0 -14
-10 -18 13 -4 -10 7 -2 -15
-9 -18 13 -4 -10 7 -2 -15
-8 -19 12 -5 -11 6 -3 -16
-7 -17 12 -5 -11 6 -3 -15
-6 -16 12 -5 -10 7 -2 -15
-6 -14 12 -5 -10 7 -2 -14
-5 -13 12 -5 -10 7 -2 -14
-4 -12 13 -5 -9 8 0 -13
-5 -13 13 -5 -9 8 0 -14
-6 -14 12 -6 -10 7 -2 -15
-6 -14 12 -6 -11 6 -3 -15
-7 -15 12 -6 -11 6 -3 -16
-8 -16 11 -7 -12 5 -4 -17
-8 -16 12 -7 -12 5 -4 -17
-8 -16 13 -7 -12 5 -4 -16
-8 -16 14 -7 -12 5 -4 -16
-8 -16 15 -7 -12 5 -4 -16
-7 -16 15 -6 -11 6 -5 -16
-7 -17 14 -7 -11 5 -6 -17
-8 -18 12 -9 -12 4 -7 -19
-9 -19 11 -10 -12 4 -7 -21
-9 -20 9 -11 -12 3 -8 -23
-10 -20 8 -12 -13 2 -8 -23
-10 -19 8 -11 -13 3 -7 -21
-11 -17 9 -10 -12 5 -5 -19
-11 -15 10 -10 -11 6 -4 -17
-11 -13 10 -9 -11 7 -2 -15
-12 -12 11 -8 -10 8 0 -14
-12 -14 11 -8 -10 7 -2 -14
-13 -15 12 -9 -11 5 -4 -15
-13 -17 13 -9 -11 4 -5 -15
-13 -18 13 -9 -11 3 -6 -15
-14 -19 14 -10 -12 2 -7 -15
-14 -19 13 -10 -12 2 -7 -14
-13 -18 11 -11 -13 2 -8 -12
-12 -17 10 -12 -13 2 -8 -11
-12 -17 9 -12 -13 2 -8 -9
-11 -16 8 -13 -14 2 -9 -8
-11 -14 8 -13 -14 1 -10 -7
-12 -13 7 -14 -15 0 -11 -6
-12 -11 6 -15 -15 0 -11 -6
-12 -10 6 -15 -15 -2 -12 -5
-13 -9 5 -16 -16 -3 -13 -4
-13 -8 5 -17 -16 -3 -13 -3
-12 -6 5 -18 -17 -3 -12 -2
-11 -5 5 -19 -18 -3 -11 0
-11 -4 5 -20 -18 -3 -11 1
-10 -3 4 -21 -19 -4 -10 2
-10 -3 4 -21 -19 -4 -9 2
-10 -2 4 -20 -18 -4 -7 1
-10 0 4 -20 -18 -4 -6 1
-10 0 4 -20 -18 -4 -5 1
-11 1 5 -19 -17 -3 -4 0
-11 1 5 -19 -17 -3 -5 0
-10 1 5 -19 -17 -3 -6 0
-9 1 5 -19 -17 -3 -7 0
-9 1 5 -19 -17 -3 -8 0
-8 2 6 -19 -17 -2 -9 -2
-9 1 6 -19 -17 -2 -9 -2
-10 -2 5 -20 -17 -3 -8 -3
-11 -3 4 -21 -17 -4 -8 -3
-12 -4 4 -21 -17 -4 -8 -3
-13 -5 3 -22 -17 -5 -7 -4
-13 -5 3 -21 -17 -5 -6 -4
-14 -4 4 -20 -17 -5 -5 -4
-15 -4 5 -20 -17 -5 -4 -4
-15 -4 5 -19 -17 -5 -3 -4
-16 -3 5 -19 -17 -6 -2 -3
-16 -3 4 -20 -18 -6 -2 -4
-15 -4 2 -22 -19 -7 -3 -6
-14 -5 0 -24 -20 -8 -4 -7
-14 -5 -3 -26 -21 -8 -4 -8
-13 -6 -4 -27 -22 -9 -5 -9
-14 -7 -4 -27 -22 -8 -4 -8
-15 -8 -3 -27 -21 -7 -3 -7
-16 -8 -2 -27 -20 -7 -2 -7
-17 -9 -2 -27 -20 -6 0 -6
-17 -9 0 -28 -19 -5 1 -5
-15 -7 0 -26 -18 -5 1 -5
-12 -5 1 -25 -17 -4 1 -5
-10 -3 1 -23 -16 -4 1 -5
-7 0 1 -22 -15 -4 1 -5
-6 1 2 -21 -14 -3 1 -4
-7 -2 2 -22 -14 -3 0 -5
-8 -3 1 -23 -15 -4 -2 -6
-9 -5 1 -23 -15 -5 -2 -7
-10 -6 1 -24 -15 -5 -3 -8
-11 -7 0 -25 -16 -6 -4 -9
-11 -6 0 -23 -16 -6 -4 -9
-11 -5 1 -21 -16 -6 -4 -8
-11 -5 1 -20 -16 -6 -4 -8
-11 -4 1 -18 -16 -6 -4 -8
-10 -3 2 -16 -16 -5 -3 -7
-10 -3 2 -13 -16 -5 -3 -7
-11 -3 2 -10 -16 -5 -2 -7
-11 -3 2 -7 -16 -5 -2 -7
-11 -3 2 -4 -16 -5 -2 -7
-12 -4 2 -2 -15 -5 0 -6
-12 -4 2 -2 -15 -5 0 -6
-12 -4 2 0 -15 -5 -2 -7
-12 -4 2 0 -15 -5 -2 -7
-12 -4 2 0 -15 -5 -2 -7
-13 -5 2 1 -15 -5 -3 -8
-13 -5 2 1 -15 -5 -3 -9
-12 -5 1 1 -15 -5 -4 -10
-11 -5 1 1 -15 -5 -4 -10
-11 -5 1 1 -15 -5 -4 -11
-10 -4 0 2 -16 -6 -5 -12
-10 -5 0 1 -16 -6 -5 -12
-11 -7 -2 0 -16 -7 -6 -12
-12 -8 -3 0 -16 -7 -6 -12
-12 -9 -3 -2 -16 -7 -6 -12
-13 -10 -4 -3 -15 -8 -7 -12
-11 -8 -3 -3 -15 -7 -5 -11
-10 -6 -2 -2 -14 -5 -3 -9
-8 -5 -2 -2 -13 -4 -2 -7
-7 -3 0 -2 -13 -3 1 -5
-6 0 2 0 -11 -2 2 -4
-6 2 3 2 -9 1 4 -2
-6 4 5 3 -6 3 5 0
-6 6 7 5 -4 4 7 2
-6 8 9 6 -2 6 8 3
-6 8 10 7 0 7 8 3
-6 6 8 5 -2 5 6 1
-7 4 6 3 -4 3 4 -2
-7 2 5 2 -6 2 2 -4
-7 0 3 0 -8 0 -2 -7
-8 -2 3 -2 -9 -2 -3 -8
-7 1 5 0 -7 0 -2 -8
-6 2 7 1 -5 2 0 -7
-6 3 9 2 -4 3 0 -6
-5 5 11 3 -2 4 1 -6
-4 7 12 4 0 5 2 -5
-4 10 12 5 1 6 3 -4
-3 13 12 6 2 7 5 -3
-2 15 12 6 2 7 6 -2
-2 18 12 7 3 8 7 0
0 20 13 8 4 9 8 1
0 20 11 7 4 9 8 2
0 19 9 6 4 10 8 3
0 19 8 6 4 10 8 3
0 19 6 5 4 10 8 4
1 17 5 4 4 11 9 5
1 15 4 4 3 10 9 5
1 12 3 3 2 9 8 5
1 10 3 3 2 9 8 5
1 8 2 3 1 8 8 5
2 7 1 2 0 7 7 5
4 9 -2 0 -2 6 7 4
6 11 -3 -3 -3 4 6 2
8 13 -4 -5 -3 3 6 1
10 15 -6 -7 -4 2 6 0
11 16 -7 -8 -5 1 5 -2
11 16 -7 -9 -5 1 3 -3
11 17 -7 -10 -6 0 2 -4
11 17 -7 -10 -6 -2 1 -4
11 17 -7 -11 -6 -2 -2 -5
8 15 -8 -12 -7 -3 -3 -6
3 9 -8 -12 -7 -3 -3 -6
-2 3 -8 -11 -7 -3 -3 -6
-7 -4 -8 -11 -7 -3 -3 -6
-11 -11 -8 -11 -7 -3 -3 -6
-13 -13 -7 -10 -7 -2 -4 -6
-10 -11 -7 -12 -8 -3 -5 -7
-7 -9 -6 -13 -10 -4 -6 -8
-5 -7 -6 -14 -11 -4 -6 -9
-2 -5 -6 -16 -12 -5 -7 -10
-2 -5 -5 -17 -13 -6 -8 -11
-6 -8 -5 -17 -13 -6 -9 -13
-11 -11 -5 -17 -12 -5 -10 -15
-15 -14 -5 -17 -12 -5 -11 -16
-19 -17 -5 -17 -12 -5 -12 -18
-22 -19 -6 -16 -11 -4 -13 -19
-22 -19 -6 -16 -11 -6 -13 -19
-21 -19 -6 -16 -11 -7 -13 -19
-21 -19 -6 -16 -11 -8 -13 -19
-21 -19 -6 -16 -11 -10 -13 -19
-20 -19 -5 -16 -12 -11 -13 -19
-18 -19 -3 -16 -11 -11 -13 -20
-16 -18 -2 -15 -10 -10 -14 -21
-15 -17 0 -15 -9 -9 -14 -21
-13 -17 2 -15 -8 -9 -14 -22
-14 -17 6 -9 -4 -7 -15 -24
-18 -21 12 1 5 -4 -15 -26
-22 -25 19 11 13 0 -15 -28
-26 -28 25 21 20 2 -15 -30
-30 -32 31 31 28 5 -15 -32
-29 -32 39 47 43 18 -5 -26
-20 -27 49 67 62 42 16 -12
-12 -22 58 88 81 65 36 4
-3 -17 66 108 101 89 58 18
6 -12 75 129 120 112 78 33
17 -6 81 148 142 141 108 56
30 2 84 167 163 175 146 88
44 9 87 186 186 207 185 118
57 16 89 204 207 240 223 149
70 23 91 224 230 274 261 181
81 35 81 218 232 290 286 206
90 53 59 187 215 289 300 226
98 70 36 155 196 288 312 246
106 87 14 125 178 287 325 267
114 104 -9 93 159 286 338 287
109 112 -29 47 119 245 306 272
89 110 -47 -14 57 165 229 222
68 107 -65 -74 -5 87 152 172
49 105 -83 -136 -67 7 75 120
28 103 -102 -196 -130 -72 -2 70
16 93 -116 -230 -166 -119 -51 34
11 76 -127 -238 -179 -136 -71 14
6 59 -137 -246 -192 -152 -92 -8
2 43 -147 -254 -205 -169 -112 -28
-4 26 -157 -262 -218 -185 -133 -49
-7 15 -155 -254 -216 -185 -138 -60
-7 10 -141 -227 -195 -169 -128 -60
-7 5 -127 -201 -176 -151 -117 -60
-7 0 -111 -175 -156 -134 -107 -60
-7 -6 -97 -148 -136 -117 -97 -60
-7 -9 -81 -124 -116 -101 -85 -58
-9 -8 -67 -103 -98 -85 -72 -50
-11 -7 -53 -81 -78 -68 -59 -41
-13 -6 -37 -60 -59 -52 -46 -33
-15 -5 -23 -38 -40 -35 -33 -25
-16 -4 -15 -25 -29 -27 -26 -21
-15 -4 -13 -21 -26 -25 -24 -20
-15 -4 -11 -17 -24 -23 -23 -20
-14 -5 -9 -13 -21 -21 -21 -19
-13 -5 -7 -9 -18 -19 -19 -18
-12 -6 -6 -6 -16 -17 -18 -17
-12 -6 -5 -4 -16 -17 -18 -17
-12 -6 -5 -3 -16 -17 -19 -18
-11 -7 -4 0 -15 -17 -20 -19
-11 -7 -3 2 -15 -17 -20 -19
-10 -8 -2 3 -14 -16 -21 -20
-10 -8 -2 2 -13 -15 -19 -19
-10 -7 -2 1 -12 -14 -18 -18
-10 -6 -2 -2 -11 -13 -17 -17
-10 -6 -2 -3 -10 -12 -15 -16
-9 -5 0 -4 -9 -11 -14 -15
-9 -6 0 -3 -9 -11 -14 -15
-10 -7 0 -2 -8 -10 -14 -16
-11 -9 0 0 -7 -9 -15 -17
-11 -10 0 1 -7 -9 -15 -17
-12 -11 0 2 -6 -8 -16 -18
-10 -11 0 2 -6 -8 -16 -18
-9 -11 0 2 -6 -8 -16 -18
-7 -10 1 2 -6 -7 -15 -18
-5 -10 1 2 -6 -7 -15 -18
-4 -9 2 1 -6 -6 -14 -17
-6 -9 2 1 -6 -6 -14 -17
-7 -9 2 1 -5 -6 -14 -17
-8 -10 2 2 -4 -6 -14 -17
-10 -10 2 2 -4 -6 -14 -17
-11 -11 2 3 -3 -7 -13 -16
-11 -11 2 3 -3 -6 -12 -15
-11 -11 2 3 -3 -6 -11 -14
-11 -11 2 3 -3 -5 -10 -13
-11 -11 2 3 -3 -4 -9 -12
-11 -10 3 3 -3 -3 -8 -11
-9 -7 4 5 0 -2 -8 -11
-7 -5 5 6 1 -2 -8 -11
-5 -2 6 7 2 0 -8 -11
-3 2 7 9 4 1 -8 -11
0 3 8 10 5 2 -7 -10
-3 0 6 8 4 1 -7 -11
-4 -4 5 7 3 1 -8 -11
-6 -7 4 6 2 0 -9 -12
-8 -10 2 4 1 -2 -9 -13
-9 -12 1 3 0 -3 -10 -14
-9 -11 2 5 1 -3 -10 -13
-9 -10 2 6 2 -3 -10 -13
-8 -9 3 7 4 -2 -9 -12
-8 -8 4 9 5 -2 -9 -11
-7 -7 5 10 6 0 -8 -10
-7 -7 5 9 6 0 -8 -10
-6 -7 4 8 6 0 -8 -9
-5 -8 3 7 5 0 -7 -8
-5 -8 3 6 5 0 -7 -8
-4 -9 2 5 4 1 -6 -7
-3 -8 2 5 4 1 -6 -7
-2 -7 2 6 4 1 -6 -7
1 -5 2 7 5 2 -6 -8
2 -4 2 7 5 2 -6 -8
3 -3 3 8 6 3 -5 -9
3 0 3 8 6 4 -4 -8
2 1 3 8 7 4 -3 -8
1 2 2 9 8 5 -2 -7
1 4 2 9 8 6 0 -6
0 5 1 10 9 7 1 -5
-2 2 1 10 8 7 1 -6
-2 0 1 10 8 7 0 -6
-3 -3 1 10 7 6 -2 -7
-4 -5 1 10 6 6 -2 -8
-5 -7 2 9 5 5 -3 -9
-3 -4 2 9 6 5 -2 -7
0 -2 2 9 6 6 0 -6
2 1 1 9 7 7 2 -4
3 3 1 9 8 7 3 -2
5 5 0 9 9 8 4 0
5 5 0 11 10 9 4 0
5 5 0 12 11 9 4 0
6 6 1 13 13 10 4 0
6 6 1 15 14 11 4 0
7 7 2 16 15 12 4 -2
7 7 2 16 15 12 4 -2
7 7 1 16 15 12 4 0
7 6 0 15 15 11 5 1
7 6 0 15 15 11 5 1
8 5 -2 14 14 10 6 2
8 5 -3 14 14 10 6 2
8 5 -3 14 14 10 5 1
9 5 -4 14 14 10 4 0
9 5 -5 14 14 10 4 0
10 5 -6 15 13 10 3 0
10 6 -5 16 14 12 4 2
11 6 -4 18 16 14 5 5
12 7 -2 19 17 16 7 7
12 8 0 21 19 17 8 10
13 9 1 22 20 19 9 12
13 8 -2 20 18 17 9 11
13 8 -3 19 16 15 8 9
13 7 -5 17 14 13 7 8
13 6 -7 15 13 11 7 6
14 5 -8 14 11 9 6 5
14 6 -8 14 11 9 6 5
15 7 -8 14 11 9 6 5
16 9 -8 14 12 10 7 6
16 10 -8 14 12 10 7 6
17 11 -7 15 13 11 8 7
17 11 -7 15 12 10 7 7
17 11 -7 14 11 9 6 6
17 11 -8 13 10 7 5 5
17 11 -8 13 9 6 4 5
18 12 -9 12 8 5 3 4
18 11 -9 10 7 4 2 4
18 11 -9 9 5 2 1 4
17 10 -10 7 4 1 -2 4
17 9 -10 5 2 -2 -3 4
16 8 -11 4 1 -3 -4 3
16 8 -11 3 0 -5 -7 1
16 8 -11 2 -2 -7 -9 -2
16 8 -11 0 -3 -9 -11 -4
16 8 -11 -2 -4 -11 -13 -5
16 7 -12 -3 -5 -13 -15 -7
16 7 -12 -3 -6 -13 -15 -7
15 8 -12 -4 -7 -13 -15 -7
14 9 -13 -5 -9 -13 -15 -6
14 9 -13 -5 -10 -13 -15 -6
13 10 -14 -6 -11 -13 -15 -5
10 10 -13 -7 -11 -14 -18 -8
8 10 -12 -8 -11 -15 -20 -10
6 10 -10 -9 -11 -17 -22 -12
4 10 -9 -10 -11 -18 -24 -14
2 10 -8 -11 -10 -19 -26 -16
3 10 -8 -12 -10 -19 -26 -16
4 10 -8 -12 -11 -20 -26 -16
6 10 -8 -13 -12 -21 -26 -16
7 10 -8 -14 -12 -21 -26 -16
8 11 -9 -15 -13 -22 -26 -16
6 11 -7 -13 -10 -20 -25 -15
4 11 -5 -12 -8 -18 -23 -14
2 12 -3 -10 -6 -16 -22 -13
1 12 -2 -8 -4 -15 -20 -12
-2 13 1 -7 -2 -13 -19 -11
-2 10 0 -8 -2 -13 -19 -12
-2 8 0 -9 -3 -13 -19 -13
-3 5 -2 -11 -4 -13 -20 -14
-3 3 -3 -12 -4 -13 -20 -15
-4 1 -4 -13 -5 -13 -21 -16
-4 1 -4 -13 -5 -13 -21 -16
-3 1 -4 -13 -5 -13 -21 -17
-2 1 -3 -12 -4 -13 -21 -18
-2 1 -3 -12 -4 -13 -21 -18
0 2 -2 -11 -3 -14 -20 -19
0 3 1 -10 -2 -12 -17 -18
0 4 2 -9 1 -10 -15 -17
-2 5 4 -8 2 -8 -13 -15
-2 6 5 -7 4 -7 -11 -14
-3 7 7 -6 5 -5 -9 -13
-4 5 7 -6 5 -5 -10 -14
-6 3 7 -7 5 -5 -12 -14
-7 1 6 -8 4 -6 -13 -15
-9 -2 6 -8 4 -6 -15 -16
-10 -4 5 -9 3 -7 -16 -17
-10 -4 5 -9 3 -7 -16 -17
-10 -4 5 -9 3 -7 -16 -17
-11 -3 5 -9 3 -7 -15 -17
-11 -3 5 -9 3 -7 -15 -17
-12 -2 4 -9 2 -6 -14 -16
-12 -3 4 -9 2 -6 -15 -17
-12 -5 4 -9 1 -7 -16 -19
-13 -6 3 -9 0 -8 -17 -20
-13 -8 3 -9 0 -8 -18 -22
-13 -9 2 -10 -2 -9 -19 -23
-10 -6 2 -10 0 -7 -18 -21
-7 -3 2 -9 0 -6 -17 -18
-4 1 3 -8 1 -4 -15 -16
0 4 3 -8 2 -3 -14 -14
3 6 4 -7 3 0 -13 -12
1 6 4 -7 3 0 -13 -13
-3 5 4 -7 3 0 -13 -13
-5 4 4 -7 3 -2 -13 -14
-7 4 4 -7 3 -2 -13 -15
-9 3 5 -6 4 -3 -12 -16
-9 2 5 -6 4 -3 -12 -15
-9 1 5 -6 4 -3 -12 -14
-8 -2 5 -6 4 -3 -12 -13
-8 -3 5 -6 4 -3 -12 -12
-7 -4 6 -5 5 -3 -11 -11
-6 -2 7 -5 6 -2 -10 -11
-6 1 7 -5 7 1 -9 -11
-5 3 8 -4 9 2 -7 -12
-4 4 9 -4 10 4 -6 -12
-3 6 10 -3 11 5 -5 -13
-3 3 9 -3 10 4 -5 -13
-4 1 8 -3 10 3 -6 -13
-5 -3 6 -4 9 2 -7 -12
-5 -5 5 -4 8 1 -7 -12
-6 -7 4 -5 7 0 -8 -11
-6 -6 4 -5 7 0 -8 -11
-6 -5 4 -4 7 0 -8 -11
-5 -4 5 -3 8 1 -8 -11
-5 -3 5 -3 8 1 -8 -11
-4 -2 6 -2 9 2 -8 -11
-6 -2 6 -2 9 3 -7 -11
-7 -2 6 -2 9 4 -6 -11
-9 -2 7 -2 9 5 -5 -11
-10 -2 7 -2 9 6 -4 -11
-12 -3 8 -2 10 7 -3 -11
-12 -3 8 -2 10 7 -3 -11
-12 -3 8 -2 10 6 -4 -11
-13 -4 8 -2 9 6 -4 -10
-13 -4 8 -2 9 5 -5 -10
-14 -5 8 -3 8 4 -6 -9
-13 -5 8 -3 8 4 -6 -10
-12 -5 8 -3 8 4 -6 -10
-11 -5 7 -3 9 4 -6 -11
-10 -5 7 -3 9 4 -6 -12
-9 -4 6 -2 10 3 -5 -13
-7 -3 6 -3 10 3 -5 -13
-4 0 6 -5 10 3 -6 -13
-2 1 6 -6 9 3 -6 -13
1 3 6 -8 9 3 -7 -13
3 4 5 -9 8 2 -8 -14
3 5 5 -8 8 2 -8 -13
4 6 5 -7 8 2 -8 -12
4 7 6 -6 8 2 -7 -11
5 9 6 -4 8 2 -7 -10
5 10 7 -3 8 3 -6 -9
2 7 7 -3 8 3 -6 -9
-2 5 7 -4 8 2 -6 -10
-6 3 7 -4 8 2 -7 -10
-9 0 7 -5 8 1 -7 -11
-12 -3 7 -6 7 0 -8 -12
-11 -3 7 -6 7 0 -8 -12
-10 -3 7 -7 7 0 -8 -13
-9 -3 7 -7 6 0 -8 -13
-8 -3 7 -8 6 0 -8 -14
-7 -3 7 -9 5 -2 -9 -15
-8 -3 6 -9 5 -3 -10 -16
-10 -3 6 -10 4 -3 -10 -16
-11 -3 5 -10 4 -4 -11 -17
-13 -3 4 -11 3 -5 -12 -18
-14 -3 3 -12 2 -6 -13 -19
-14 -4 3 -12 2 -6 -13 -19
-13 -5 3 -12 2 -7 -13 -19
-13 -6 2 -13 1 -7 -13 -19
-12 -7 2 -13 1 -8 -13 -19
-11 -8 1 -14 0 -9 -14 -19
-10 -8 1 -14 0 -9 -14 -19
-10 -8 1 -14 -2 -9 -14 -19
-9 -7 1 -14 -2 -9 -15 -20
-8 -7 1 -14 -3 -9 -15 -20
-7 -6 2 -15 -4 -9 -16 -21
-7 -6 2 -15 -4 -9 -16 -21
-7 -6 2 -15 -4 -9 -16 -21
-7 -7 2 -15 -4 -9 -16 -22
-7 -7 2 -15 -4 -9 -16 -22
-7 -8 3 -16 -3 -10 -16 -23
-9 -8 3 -16 -3 -10 -16 -23
-12 -8 3 -15 -2 -10 -16 -23
-14 -8 3 -15 -2 -9 -16 -23
-16 -8 3 -14 0 -9 -16 -23
-17 -9 2 -13 1 -8 -17 -23
-14 -7 2 -13 1 -8 -17 -23
-10 -5 3 -13 1 -8 -17 -23
-6 -3 3 -13 1 -8 -17 -23
-2 0 4 -13 1 -8 -17 -23
2 2 5 -13 2 -9 -16 -22
-2 1 5 -14 1 -9 -16 -22
-4 -2 5 -14 0 -10 -16 -22
-6 -3 5 -15 -2 -10 -17 -23
-9 -4 5 -16 -4 -11 -17 -23
-11 -6 5 -17 -5 -12 -18 -24
-10 -6 5 -16 -4 -12 -18 -24
-10 -6 5 -15 -4 -12 -18 -23
-9 -5 4 -14 -3 -11 -18 -23
-8 -5 4 -13 -2 -11 -18 -22
-7 -4 3 -12 0 -10 -17 -21
-8 -4 3 -12 0 -10 -17 -21
-9 -4 3 -13 0 -10 -17 -22
-10 -5 3 -13 -2 -11 -16 -22
-11 -5 3 -14 -2 -11 -16 -23
-12 -6 3 -15 -3 -12 -15 -24
-14 -8 2 -16 -4 -12 -14 -25
-15 -10 2 -17 -5 -13 -13 -26
-17 -13 1 -18 -6 -13 -12 -27
-18 -15 0 -19 -7 -14 -10 -28
-19 -17 -2 -20 -8 -15 -9 -29
-15 -13 -2 -20 -7 -15 -8 -29
-11 -10 -2 -19 -6 -15 -7 -29
-7 -7 0 -19 -5 -15 -6 -29
-3 -4 0 -18 -4 -15 -4 -29
1 0 1 -17 -3 -14 -3 -28
0 -2 1 -17 -3 -14 -2 -28
-3 -4 1 -17 -4 -14 0 -28
-4 -5 1 -17 -4 -15 1 -28
-5 -6 1 -17 -5 -15 2 -28
-7 -8 1 -17 -6 -16 3 -29
-10 -8 1 -17 -6 -16 3 -29
-13 -9 1 -17 -5 -16 3 -29
-16 -9 1 -16 -5 -16 2 -28
-18 -10 1 -16 -4 -16 2 -28
-21 -11 1 -15 -3 -15 1 -27
-17 -10 1 -13 -4 -15 1 -27
-14 -9 1 -11 -5 -15 1 -27
-10 -8 1 -8 -6 -16 0 -28
-7 -7 1 -6 -7 -16 0 -28
-4 -6 2 -4 -8 -17 -2 -29
-5 -6 2 -3 -8 -17 -2 -29
-6 -7 2 -2 -7 -17 -2 -29
-7 -7 2 0 -7 -17 -2 -29
-9 -8 2 1 -6 -17 -2 -29
-10 -9 1 2 -5 -17 0 -28
-10 -9 1 2 -5 -17 0 -28
-10 -9 1 1 -5 -17 0 -28
-10 -9 2 1 -5 -17 0 -27
-10 -9 2 0 -5 -17 0 -27
-10 -8 3 -2 -6 -16 1 -26
-9 -8 3 -2 -6 -15 1 -26
-7 -8 3 -3 -6 -14 1 -26
-6 -8 3 -4 -6 -13 1 -26
-5 -8 3 -5 -6 -12 1 -26
-3 -8 3 -6 -6 -11 0 -27
-5 -8 3 -6 -6 -10 0 -27
-7 -8 2 -5 -6 -8 -2 -28
-9 -9 1 -5 -6 -7 -2 -29
-11 -9 0 -4 -6 -6 -3 -30
-13 -10 -2 -3 -7 -4 -4 -31
-12 -10 -2 -3 -7 -4 -4 -31
-11 -10 -2 -3 -7 -4 -4 -31
-10 -9 0 -2 -7 -4 -4 -31
-9 -9 0 -2 -7 -4 -4 -31
-8 -8 1 0 -6 -3 -4 -32
-8 -8 1 0 -6 -3 -4 -32
-8 -8 1 -2 -6 -3 -4 -32
-7 -8 1 -2 -7 -4 -4 -32
-7 -8 1 -3 -7 -4 -4 -32
-6 -8 1 -4 -8 -5 -3 -31
-6 -8 1 -4 -8 -5 -3 -31
-7 -8 1 -4 -7 -4 -3 -31
-7 -8 1 -3 -7 -4 -3 -31
-8 -8 1 -3 -6 -3 -3 -31
-9 -9 0 -2 -5 -2 -2 -31
-10 -10 0 0 -5 -2 -2 -31
-11 -12 0 1 -6 -2 -3 -31
-12 -13 0 2 -6 -3 -3 -31
-13 -14 0 3 -7 -3 -4 -31
-14 -16 0 4 -8 -4 -5 -30
-14 -15 0 3 -8 -4 -5 -30
-13 -13 1 1 -7 -5 -4 -30
-12 -11 2 0 -6 -6 -4 -30
-11 -10 3 -2 -5 -7 -3 -30
-10 -8 4 -4 -4 -8 -2 -30
-9 -8 4 -4 -4 -8 -2 -27
-7 -8 4 -3 -4 -7 -2 -25
-5 -8 4 -3 -4 -7 -3 -22
-4 -8 4 -2 -4 -6 -3 -20
-2 -7 4 0 -5 -5 -4 -17
-3 -8 3 0 -5 -5 -4 -16
-4 -10 2 0 -6 -5 -5 -15
-5 -12 1 0 -7 -5 -5 -14
-7 -13 0 0 -8 -5 -6 -12
-8 -15 -2 0 -9 -4 -7 -11
-8 -14 -2 0 -8 -4 -7 -11
-7 -13 -2 1 -7 -3 -6 -10
-7 -12 0 1 -6 -3 -6 -9
-6 -10 0 2 -5 -2 -5 -8
-5 -9 1 3 -4 0 -4 -7
-5 -7 3 4 -3 0 -3 -7
-5 -4 5 5 0 0 0 -7
-6 -2 7 6 1 0 1 -8
-6 2 9 7 2 0 2 -8
-7 4 11 8 4 -2 4 -9
-6 4 11 8 4 -2 4 -9
-5 4 10 8 4 0 4 -9
-4 4 10 8 4 1 4 -9
-2 4 9 8 4 2 4 -9
0 3 8 7 5 3 3 -9
-3 2 8 7 5 3 3 -9
-5 1 8 7 5 3 3 -9
-7 0 8 7 5 3 3 -10
-9 -3 8 7 5 3 3 -10
-11 -4 8 7 5 3 2 -11
-9 -2 8 7 5 4 3 -8
-8 1 8 7 5 5 5 -5
-6 4 9 7 5 6 7 -2
-4 6 9 7 5 7 8 2
-2 8 10 7 5 8 10 5
1 9 9 7 5 8 10 5
3 10 7 7 4 7 10 4
5 11 6 7 3 7 10 4
7 13 5 7 2 6 10 3
9 14 3 7 1 5 9 2
8 12 1 4 -3 2 7 0
6 10 -2 1 -5 0 5 -3
5 8 -4 -2 -8 -4 3 -5
4 5 -7 -5 -10 -6 1 -7
2 3 -9 -8 -13 -9 -2 -9
4 4 -9 -7 -13 -8 0 -8
6 5 -9 -6 -12 -6 1 -7
8 6 -8 -5 -11 -5 2 -6
11 7 -8 -4 -10 -4 3 -4
13 8 -7 -3 -9 -2 4 -3
9 5 -7 -3 -9 -2 3 -3
5 2 -7 -3 -9 -3 2 -4
1 0 -7 -4 -9 -4 1 -5
-4 -4 -7 -4 -9 -5 0 -6
-8 -7 -6 -5 -10 -6 -2 -7
-8 -8 -6 -6 -11 -7 -3 -9
-8 -10 -6 -7 -12 -8 -4 -11
-8 -11 -6 -8 -13 -9 -5 -13
-8 -12 -6 -9 -14 -10 -6 -15
-9 -14 -7 -10 -16 -12 -8 -17
-9 -14 -7 -10 -16 -12 -8 -17
-9 -13 -6 -9 -15 -12 -8 -16
-10 -13 -5 -9 -14 -11 -8 -15
-10 -12 -4 -8 -13 -11 -8 -14
-11 -11 -3 -7 -12 -10 -7 -13
-12 -14 -3 -7 -13 -11 -9 -15
-14 -17 -4 -8 -14 -13 -11 -17
-15 -19 -4 -9 -15 -15 -13 -19
-16 -22 -5 -10 -16 -16 -15 -21
-18 -25 -6 -11 -18 -18 -17 -23
-16 -25 -6 -11 -18 -18 -17 -23
-14 -25 -6 -11 -18 -17 -16 -23
-12 -24 -6 -12 -18 -17 -16 -22
-9 -24 -6 -12 -18 -16 -15 -22
-7 -23 -5 -13 -17 -15 -14 -21
-9 -23 -2 -6 -15 -15 -15 -22
-11 -23 2 1 -14 -15 -16 -23
-13 -24 4 7 -12 -16 -17 -24
-16 -24 7 13 -10 -16 -18 -25
-18 -25 10 20 -6 -16 -20 -27
-18 -26 16 33 9 -7 -14 -26
-18 -27 22 46 23 2 -9 -24
-18 -28 28 58 38 11 -4 -22
-18 -29 34 70 53 20 3 -21
-17 -31 40 85 69 32 12 -16
-8 -27 53 112 96 68 46 10
2 -23 66 140 121 103 80 34
11 -20 78 167 148 139 114 60
20 -16 91 194 175 174 148 85
30 -10 101 218 197 207 182 111
52 8 90 216 202 229 217 144
72 25 77 215 209 252 251 176
93 43 66 213 214 274 285 209
113 60 54 211 219 297 320 240
131 75 40 201 218 309 344 268
120 80 17 143 169 257 299 253
109 86 -7 84 120 204 253 238
99 91 -30 25 71 152 207 224
89 95 -54 -33 23 100 161 210
76 99 -77 -90 -25 48 115 190
61 87 -95 -131 -69 -7 63 143
45 75 -113 -172 -113 -60 11 96
29 63 -131 -213 -156 -113 -41 49
13 52 -148 -255 -200 -166 -93 2
-2 39 -164 -288 -238 -213 -139 -40
-3 28 -157 -269 -226 -202 -135 -47
-4 16 -151 -249 -214 -191 -131 -52
-5 5 -144 -229 -200 -181 -128 -57
-6 -8 -138 -210 -188 -171 -123 -63
-8 -18 -130 -189 -175 -158 -118 -68
-8 -20 -112 -163 -151 -139 -104 -62
-9 -22 -94 -138 -129 -119 -91 -56
-10 -24 -76 -112 -106 -100 -77 -50
-11 -26 -58 -87 -82 -80 -63 -44
-12 -28 -41 -62 -61 -63 -51 -37
-8 -22 -33 -51 -52 -54 -44 -33
-5 -16 -25 -38 -43 -46 -37 -28
0 -10 -17 -26 -33 -37 -31 -24
3 -5 -9 -15 -24 -29 -24 -19
7 2 -2 -4 -15 -21 -18 -15
2 2 -2 -3 -15 -21 -18 -15
-4 1 -2 -2 -15 -21 -18 -15
-9 0 -2 0 -15 -21 -19 -16
-14 -2 -2 1 -15 -21 -19 -16
-19 -3 -2 2 -14 -22 -20 -17
-18 -5 -2 2 -14 -22 -20 -18
-17 -7 -2 2 -13 -22 -20 -19
-15 -9 -2 2 -12 -21 -21 -20
-14 -11 -2 2 -11 -21 -21 -21
-12 -13 0 1 -10 -20 -22 -22
-12 -12 0 1 -9 -19 -21 -21
-13 -11 1 1 -8 -18 -20 -20
-14 -10 2 2 -7 -17 -19 -19
-15 -9 3 2 -6 -16 -18 -18
-16 -8 4 3 -4 -15 -16 -17
-15 -9 4 3 -4 -15 -16 -17
-13 -11 4 3 -3 -15 -17 -18
-12 -13 4 4 -2 -15 -18 -18
-10 -15 4 4 0 -15 -19 -19
-8 -17 3 5 1 -15 -20 -20
-8 -16 3 5 1 -15 -20 -19
-8 -15 4 6 2 -14 -19 -18
-8 -14 4 6 2 -13 -19 -17
-8 -13 5 7 3 -12 -18 -16
-8 -11 6 8 4 -11 -17 -14
-8 -12 6 8 4 -11 -17 -14
-9 -14 6 8 4 -11 -18 -14
-9 -16 6 8 4 -12 -19 -15
-10 -18 6 8 4 -12 -20 -15
-11 -20 5 8 4 -13 -21 -16
-11 -19 5 8 4 -13 -21 -15
-10 -17 5 8 4 -13 -21 -14
-9 -15 4 8 4 -12 -20 -13
-8 -13 4 8 4 -12 -20 -12
-7 -11 3 7 5 -11 -19 -11
-6 -10 4 8 6 -10 -18 -10
-4 -8 5 10 8 -8 -17 -9
-2 -6 6 12 10 -6 -15 -8
1 -4 7 14 12 -4 -14 -7
3 -2 8 16 14 -2 -12 -6
3 -2 8 16 14 -2 -12 -6
4 -2 8 15 14 -2 -12 -6
4 -3 7 15 14 -3 -12 -6
5 -3 7 14 14 -3 -12 -6
6 -4 6 13 13 -4 -13 -6
3 -5 6 13 13 -4 -13 -6
-2 -6 6 13 13 -4 -13 -7
-5 -7 6 13 14 -4 -14 -7
-8 -8 6 13 14 -4 -14 -8
-12 -10 6 12 15 -4 -15 -9
-11 -10 6 12 15 -4 -15 -9
-9 -9 6 12 15 -4 -15 -8
-8 -8 6 12 15 -3 -14 -7
-6 -7 6 12 15 -3 -14 -6
-4 -6 6 12 16 -2 -13 -5
-3 -6 6 12 16 -2 -13 -5
-2 -6 6 12 16 -2 -13 -5
0 -6 6 12 16 -2 -13 -4
1 -6 6 12 16 -2 -13 -4
2 -7 5 13 16 -2 -14 -3
2 -7 5 13 16 -2 -14 -3
1 -7 4 13 16 -2 -14 -3
0 -7 3 13 16 -2 -15 -3
-2 -7 2 13 16 -2 -15 -3
-3 -8 1 12 16 -3 -16 -4
-2 -8 1 13 17 -3 -16 -3
0 -7 2 14 18 -2 -15 -2
2 -6 2 15 19 0 -14 0
3 -5 3 16 20 1 -13 1
5 -4 4 17 21 2 -12 2
6 -3 4 17 22 2 -12 2
7 -2 4 17 23 2 -12 3
8 0 4 17 24 3 -11 3
9 1 4 17 25 3 -11 4
10 3 5 18 26 4 -10 5
10 3 5 18 26 4 -10 5
10 3 4 18 26 4 -10 6
11 2 4 18 25 5 -9 6
11 2 3 18 25 5 -9 7
12 1 2 18 24 6 -8 8
12 1 2 18 24 6 -8 8
12 2 2 18 24 6 -8 8
13 2 2 18 24 6 -8 8
13 3 2 18 24 6 -8 8
14 4 2 18 25 5 -9 8
14 4 2 18 25 5 -9 8
14 4 1 19 26 5 -10 7
14 3 0 19 26 4 -11 7
14 3 -2 20 27 4 -12 6
13 2 -3 21 28 3 -13 5
13 3 -3 21 28 3 -12 6
13 4 -3 20 28 4 -11 7
13 5 -3 20 28 4 -10 9
13 6 -3 19 28 5 -9 10
13 7 -3 18 27 6 -8 12
14 7 -3 18 27 6 -8 12
15 7 -3 18 27 6 -9 11
16 7 -3 19 27 5 -10 11
17 7 -3 19 27 5 -11 10
18 6 -2 20 26 4 -12 9
18 5 -3 19 25 3 -13 9
17 4 -4 18 24 2 -14 8
16 3 -5 16 23 1 -15 7
15 2 -6 15 22 0 -16 6
14 1 -8 13 21 -3 -17 5
15 3 -8 13 21 -4 -17 5
17 5 -8 13 21 -5 -18 5
19 7 -7 12 20 -6 -18 5
21 9 -7 12 20 -7 -19 5
23 11 -6 11 19 -9 -20 6
23 12 -6 10 19 -9 -20 6
24 13 -6 9 18 -10 -21 6
24 14 -6 8 18 -10 -21 6
25 15 -6 7 17 -11 -22 6
26 17 -6 6 16 -12 -23 7
25 15 -6 5 16 -13 -24 6
24 13 -7 4 15 -14 -25 5
22 11 -8 3 14 -15 -27 3
21 9 -9 2 13 -16 -28 2
19 7 -10 1 12 -18 -30 0
17 8 -10 1 12 -19 -31 0
15 10 -9 0 12 -20 -32 -2
13 11 -9 -2 11 -21 -33 -3
11 13 -8 -3 11 -22 -34 -4
8 15 -7 -4 10 -23 -35 -5
9 15 -6 -4 10 -23 -35 -5
10 15 -5 -4 10 -23 -36 -5
11 15 -4 -5 11 -23 -36 -5
12 15 -3 -5 11 -23 -37 -5
13 14 -2 -6 12 -24 -38 -6
12 13 -2 -6 12 -24 -38 -6
10 11 -2 -6 12 -24 -39 -7
9 9 -2 -6 12 -24 -39 -8
7 7 -2 -6 12 -24 -40 -9
5 5 -3 -7 12 -23 -41 -10
5 5 -3 -7 13 -23 -39 -10
5 5 -2 -6 14 -22 -37 -10
5 5 -2 -6 15 -21 -34 -10
5 5 0 -5 16 -20 -32 -10
4 4 1 -4 17 -19 -29 -10
3 3 1 -4 17 -19 -28 -10
2 2 1 -5 17 -19 -27 -10
0 0 0 -6 17 -19 -26 -10
-2 -2 0 -7 17 -19 -25 -10
-4 -4 -2 -8 16 -20 -24 -10
-4 -4 -2 -7 18 -19 -22 -10
-3 -4 0 -6 20 -18 -21 -10
-3 -4 1 -5 22 -17 -19 -9
-2 -4 2 -4 24 -16 -17 -9
-2 -4 2 -3 26 -15 -15 -9
0 -2 3 -2 27 -13 -12 -8
0 1 4 0 27 -12 -10 -7
0 3 5 0 26 -11 -8 -6
0 5 6 1 26 -10 -6 -5
0 6 7 1 26 -9 -4 -5
1 6 7 1 25 -8 -2 -5
0 5 6 -2 25 -9 1 -6
-2 3 4 -3 25 -9 2 -7
-3 2 3 -5 25 -10 4 -8
-3 1 2 -6 25 -10 5 -9
-4 0 1 -7 25 -11 6 -10
-4 0 2 -7 24 -11 6 -10
-4 -2 2 -7 23 -12 7 -10
-4 -2 3 -7 22 -12 7 -10
-4 -2 3 -7 22 -12 7 -10
-3 -3 4 -6 21 -13 8 -9
-3 -3 5 -5 22 -12 8 -9
-3 -3 5 -4 23 -12 7 -9
-3 -3 6 -3 24 -11 7 -9
-3 -3 6 -2 25 -11 7 -9
-3 -3 7 0 26 -10 6 -8
-4 -4 6 -2 25 -10 6 -8
-6 -5 5 -3 24 -10 6 -8
-7 -6 4 -4 23 -10 6 -8
-8 -6 3 -5 23 -10 6 -8
-8 -6 2 -5 23 -10 7 -6
-6 -5 3 -4 24 -9 8 -5
-5 -4 3 -2 26 -8 9 -4
-3 -3 4 0 27 -7 10 -3
-2 -2 4 1 28 -6 11 -2
0 0 5 2 29 -5 12 0
0 0 5 2 29 -4 12 1
0 0 5 2 29 -4 12 1
0 0 5 2 29 -3 12 2
0 0 5 2 29 -3 12 2
1 1 6 3 30 -2 13 3
0 0 6 4 30 -2 12 2
0 0 6 4 30 -3 11 1
-2 -2 6 5 30 -3 10 0
-2 -2 6 5 30 -3 10 0
-3 -3 5 6 29 -4 9 -2
-3 -3 5 6 29 -4 10 0
-4 -3 4 6 29 -4 11 1
-4 -3 4 6 29 -4 12 2
-4 -3 4 6 29 -4 12 2
-4 -4 4 6 29 -3 13 3
-3 -3 5 5 30 -2 12 2
-2 -2 6 4 30 -2 12 2
0 0 7 3 31 0 11 1
1 1 8 3 31 0 11 1
3 2 9 2 32 1 10 0
5 2 8 3 32 1 11 1
6 3 7 3 32 1 11 1
8 3 6 4 32 1 12 2
9 3 6 4 32 1 12 2
8 4 6 5 32 1 13 3
5 3 7 5 33 2 13 3
2 3 8 5 34 2 13 3
-2 2 9 5 35 3 13 3
-4 2 10 5 35 3 13 3
-4 1 11 4 36 4 12 4
-2 1 10 4 35 3 12 4
0 1 9 3 34 3 12 5
2 1 8 3 33 2 12 5
3 1 7 3 33 2 12 5
3 1 6 2 32 1 12 5
2 0 6 1 31 0 12 4
0 -2 6 1 30 -2 12 3
-2 -3 6 0 29 -3 12 2
-3 -4 6 0 29 -3 12 1
-4 -5 7 -2 28 -4 11 0
-4 -5 6 -3 28 -4 10 0
-4 -5 5 -3 27 -4 10 0
-4 -5 4 -4 27 -4 9 0
-4 -5 4 -4 27 -4 9 0
-4 -4 3 -5 26 -5 8 -2
-4 -2 4 -4 27 -4 8 0
-3 1 5 -3 28 -3 8 1
-3 3 6 -2 29 -2 8 2
-3 4 6 0 29 -2 8 2
-2 4 7 0 29 -2 8 3
-2 2 6 -3 27 -4 6 2
-2 1 5 -5 26 -6 5 1
-2 -2 4 -7 24 -8 3 0
-2 -3 4 -9 23 -9 2 -2
0 -4 3 -10 22 -10 1 -3
-2 -5 3 -10 22 -10 1 -3
-3 -6 2 -10 21 -9 2 -3
-4 -7 2 -10 21 -9 2 -3
-5 -7 2 -10 21 -9 2 -3
-6 -8 1 -11 20 -8 3 -2
-7 -8 1 -11 20 -9 2 -2
-8 -8 2 -11 20 -9 1 -2
-9 -8 2 -11 20 -10 0 -2
-9 -8 2 -11 20 -10 -2 -2
-8 -6 3 -11 20 -11 -3 -3
-5 -5 3 -11 20 -11 -3 -3
-2 -4 3 -11 20 -10 -2 -3
2 -3 3 -11 20 -10 -2 -3
5 -2 3 -11 20 -10 -2 -3
4 0 4 -10 20 -9 0 -3
2 1 4 -10 20 -8 1 -2
-2 1 4 -9 20 -8 2 1
-5 2 4 -9 20 -7 3 2
-7 2 4 -9 20 -7 3 3
-8 1 5 -9 20 -7 3 3
-8 -2 4 -11 19 -8 2 1
-9 -5 3 -13 17 -10 0 -2
-9 -8 2 -15 16 -11 -2 -4
-9 -10 2 -16 15 -12 -3 -6
-9 -10 1 -17 14 -13 -4 -7
-7 -9 1 -17 14 -13 -4 -7
-5 -7 0 -17 14 -13 -4 -7
-3 -6 0 -17 14 -13 -4 -7
0 -5 0 -17 14 -13 -4 -7
1 -4 -2 -18 13 -13 -4 -6
1 -3 -2 -18 13 -13 -4 -6
2 -2 0 -18 14 -13 -4 -6
2 0 0 -18 14 -13 -4 -6
2 0 0 -18 14 -13 -4 -6
2 0 1 -18 14 -13 -6 -6
-2 -2 1 -19 12 -14 -7 -8
-4 -3 1 -19 11 -15 -9 -9
-6 -4 1 -20 9 -16 -10 -11
-8 -5 1 -20 8 -17 -11 -12
-9 -6 0 -21 7 -18 -11 -12
-8 -6 0 -21 8 -17 -10 -11
-7 -7 0 -21 9 -16 -9 -9
-6 -7 0 -21 10 -15 -8 -8
-5 -7 0 -21 11 -14 -7 -7
-4 -8 -2 -20 11 -13 -6 -6
-5 -8 -2 -21 10 -14 -7 -7
-5 -8 -2 -22 9 -15 -7 -8
-6 -8 -2 -23 8 -16 -8 -9
-6 -8 -2 -23 7 -16 -8 -9
-7 -7 0 -23 6 -17 -9 -10
-7 -6 1 -22 7 -16 -9 -9
-8 -6 1 -21 8 -15 -8 -9
-8 -5 2 -20 9 -14 -8 -8
-8 -5 2 -19 9 -14 -8 -8
-8 -4 3 -18 10 -13 -7 -7
-7 -3 2 -19 9 -14 -8 -7
-5 -3 1 -20 9 -15 -8 -8
-4 -2 0 -21 8 -16 -9 -8
-3 -2 -2 -21 8 -16 -9 -8
-3 -2 -3 -22 7 -16 -10 -9
-5 -4 -3 -22 7 -15 -9 -8
-6 -6 -2 -21 7 -14 -8 -7
-8 -7 -2 -21 7 -13 -7 -6
-9 -9 -2 -21 7 -12 -7 -6
-10 -10 0 -18 7 -11 -6 -5
-10 -10 0 -16 7 -12 -7 -6
-9 -9 -2 -14 7 -13 -8 -6
-9 -9 -2 -11 7 -14 -9 -7
-9 -9 -2 -9 7 -14 -10 -7
-8 -8 -3 -8 7 -15 -11 -8
-8 -8 -3 -7 6 -15 -11 -8
-9 -8 -3 -6 4 -15 -11 -8
-9 -8 -3 -5 3 -15 -11 -8
-9 -8 -3 -4 2 -15 -11 -8
-9 -7 -4 -2 1 -15 -12 -9
-7 -6 -4 0 1 -15 -12 -9
-5 -5 -4 2 1 -16 -13 -9
-4 -4 -4 4 1 -16 -13 -9
-2 -4 -4 5 1 -16 -13 -9
-3 -4 -5 7 2 -17 -14 -10
-6 -6 -5 8 2 -17 -14 -10
-10 -8 -4 9 2 -17 -14 -10
-13 -9 -4 10 2 -17 -14 -10
-16 -11 -4 11 2 -17 -14 -10
-15 -11 -3 10 3 -17 -15 -10
-12 -9 -3 8 3 -16 -14 -9
-8 -7 -3 6 2 -15 -13 -8
-5 -5 -3 3 2 -14 -12 -7
-2 -3 -3 1 2 -13 -11 -6
-3 -2 -4 0 1 -13 -10 -5
-5 -3 -4 0 1 -14 -11 -6
-7 -4 -4 0 1 -15 -12 -7
-10 -5 -4 0 1 -16 -13 -8
-12 -6 -4 0 1 -17 -13 -8
-13 -7 -4 -2 0 -18 -14 -9
-12 -7 -4 -2 0 -17 -13 -8
-11 -7 -4 0 0 -16 -13 -7
-10 -7 -4 0 0 -15 -12 -6
-10 -7 -4 0 0 -15 -12 -6
-9 -6 -4 1 1 -14 -11 -5
-9 -7 -4 0 1 -14 -12 -6
-9 -8 -4 0 1 -15 -12 -7
-9 -9 -4 -2 1 -15 -13 -8
-9 -9 -4 -2 1 -15 -13 -9
-8 -9 -4 -3 0 -16 -14 -10
-7 -8 -5 -4 -2 -16 -14 -9
-5 -7 -6 -4 -3 -16 -14 -9
-3 -6 -7 -5 -4 -16 -14 -8
-2 -5 -7 -5 -5 -16 -14 -8
-2 -4 -8 -5 -6 -14 -13 -7
-3 -4 -7 -4 -6 -13 -12 -7
-5 -4 -7 -3 -6 -11 -11 -8
-7 -4 -6 0 -6 -9 -9 -8
-8 -4 -6 1 -6 -8 -8 -8
-9 -5 -5 2 -5 -6 -5 -8
-9 -5 -5 2 -4 -4 -2 -7
-9 -5 -5 2 -3 -2 2 -6
-9 -5 -5 2 -2 1 5 -5
-9 -5 -5 2 0 3 8 -4
-8 -6 -6 3 1 4 8 -3
-8 -6 -6 2 0 3 7 -4
-8 -6 -6 2 0 2 5 -5
-8 -6 -6 1 -2 1 3 -6
-8 -6 -6 1 -2 1 2 -6
-8 -6 -6 0 -3 0 1 -7
-8 -5 -5 1 -2 1 3 -7
-9 -4 -4 2 0 1 4 -6
-9 -2 -3 3 1 2 5 -6
-9 0 -2 3 2 2 6 -6
-9 1 0 4 3 3 7 -5
-8 1 0 4 3 3 7 -5
-7 2 0 4 3 4 7 -4
-5 2 0 4 3 4 7 -4
-4 2 0 4 3 4 7 -4
-3 3 1 4 3 5 8 -3
-3 3 1 4 3 5 7 -3
-2 3 1 4 3 5 7 -3
-2 3 1 4 3 5 6 -3
-2 3 1 4 3 5 6 -3
0 4 2 4 4 5 5 -4
-2 6 3 5 6 6 7 -2
-2 7 4 6 7 7 8 0
-3 8 6 7 8 8 9 1
-3 9 7 7 9 9 10 2
-4 10 6 8 10 10 11 3
-3 10 4 7 10 10 11 4
-2 11 1 6 10 10 11 4
0 11 -2 5 10 10 11 5
0 11 -5 4 10 10 11 5
1 12 -6 3 9 9 11 6
2 12 -8 1 7 8 10 6
3 11 -9 0 5 7 10 5
4 11 -10 -2 4 6 9 5
5 11 -11 -3 2 5 9 5
6 10 -12 -4 1 4 8 4
6 10 -12 -5 0 4 8 4
6 11 -13 -6 -2 3 7 3
6 11 -13 -7 -3 3 7 3
6 11 -13 -7 -3 3 7 3
7 12 -14 -8 -4 2 6 2
7 12 -14 -8 -3 3 6 2
7 12 -14 -7 -3 3 6 2
7 12 -14 -7 -2 4 6 2
7 12 -14 -7 -2 4 6 2
6 11 -14 -6 0 5 6 2
3 10 -14 -6 -2 4 5 1
1 8 -13 -7 -2 3 5 1
-3 6 -13 -7 -3 2 4 0
-5 5 -13 -7 -3 2 4 0
-6 3 -12 -9 -5 0 2 -3
-6 2 -12 -10 -6 -2 1 -5
-6 0 -12 -11 -8 -3 -2 -7
-6 -3 -12 -13 -10 -5 -4 -8
-6 -4 -12 -14 -11 -6 -5 -10
-7 -5 -9 -15 -12 -7 -6 -11
-9 -6 -7 -14 -12 -7 -6 -11
-10 -6 -4 -14 -12 -6 -6 -11
-11 -7 -2 -13 -12 -6 -6 -11
-12 -7 2 -13 -12 -6 -6 -11
-13 -8 4 -12 -11 -5 -6 -11
-13 -9 6 -13 -11 -6 -7 -12
-13 -10 8 -14 -11 -7 -8 -12
-13 -11 9 -15 -11 -8 -9 -13
-13 -12 11 -15 -11 -8 -9 -13
-12 -13 12 -14 -12 -9 -10 -14
-13 -13 13 -11 -12 -9 -10 -15
-13 -13 13 -8 -12 -9 -10 -15
-14 -13 14 -4 -12 -9 -10 -16
-14 -13 14 0 -12 -9 -10 -16
-16 -14 22 8 -7 -5 -12 -18
-17 -16 31 17 2 1 -13 -20
-18 -19 40 27 9 5 -14 -22
-20 -22 50 36 16 10 -16 -24
-21 -25 59 46 24 14 -17 -26
-17 -24 68 62 39 30 -4 -18
-9 -21 75 79 57 49 15 -7
-2 -18 84 97 74 68 34 6
6 -14 92 114 92 88 54 18
14 -11 100 132 109 106 72 30
25 -5 105 151 131 136 105 55
37 4 109 173 153 168 141 82
50 12 113 193 176 199 177 111
62 20 117 215 199 232 213 139
75 28 121 236 222 264 248 168
87 44 106 222 218 274 270 195
97 61 85 195 202 276 287 222
108 79 63 169 188 279 305 250
118 97 42 142 174 282 322 277
130 114 20 115 159 285 340 304
117 115 1 63 111 230 289 272
98 109 -17 3 53 155 216 221
77 104 -34 -58 -7 80 142 170
57 98 -53 -117 -65 5 69 118
36 92 -70 -178 -124 -70 -5 67
24 79 -81 -201 -152 -103 -39 37
14 66 -91 -214 -170 -123 -62 16
3 53 -100 -226 -187 -143 -86 -6
-8 38 -109 -238 -204 -162 -108 -28
-18 25 -118 -251 -222 -183 -131 -50
-21 16 -113 -236 -215 -178 -131 -57
-20 8 -102 -213 -197 -163 -122 -58
-19 1 -91 -189 -181 -148 -113 -59
-19 -8 -79 -165 -163 -134 -105 -61
-18 -16 -68 -141 -147 -119 -97 -62
-17 -17 -54 -120 -128 -103 -85 -58
-16 -15 -39 -100 -108 -86 -71 -50
-15 -14 -24 -79 -89 -69 -59 -43
-14 -12 -9 -59 -69 -52 -46 -34
-13 -10 7 -38 -50 -35 -33 -26
-12 -9 11 -31 -44 -29 -29 -24
-12 -8 12 -29 -40 -27 -27 -23
-13 -7 12 -27 -37 -25 -26 -22
-13 -6 13 -25 -35 -23 -25 -22
-13 -5 13 -23 -32 -21 -24 -21
-14 -4 15 -18 -30 -20 -23 -20
-14 -5 17 -13 -28 -19 -23 -21
-15 -6 18 -7 -27 -19 -23 -22
-15 -7 20 -2 -25 -18 -23 -22
-15 -8 22 5 -23 -18 -23 -23
-16 -9 23 7 -22 -17 -23 -24
-15 -9 24 6 -22 -16 -22 -23
-14 -8 24 6 -22 -15 -21 -22
-13 -8 25 5 -22 -14 -21 -22
-12 -8 25 5 -22 -13 -20 -21
-11 -8 26 4 -21 -12 -19 -20
-12 -9 26 5 -20 -12 -19 -20
-13 -10 26 5 -20 -11 -19 -20
-13 -12 26 6 -19 -11 -19 -20
-14 -13 26 6 -19 -11 -19 -20
-13 -12 25 7 -18 -10 -18 -19
-10 -9 26 7 -17 -9 -17 -18
-6 -6 26 8 -17 -8 -16 -17
-3 -3 27 8 -16 -7 -15 -17
2 1 27 8 -16 -6 -14 -16
1 1 28 9 -15 -5 -13 -15
-3 -2 27 8 -15 -6 -14 -16
-6 -4 27 7 -16 -6 -15 -17
-9 -6 26 7 -16 -7 -15 -17
-12 -8 26 6 -16 -7 -16 -18
-13 -9 25 5 -17 -8 -17 -19
-11 -9 25 6 -16 -7 -16 -18
-10 -9 25 6 -16 -6 -15 -17
-9 -9 25 7 -15 -6 -15 -17
-8 -9 25 7 -15 -5 -14 -16
-7 -9 26 8 -14 -4 -13 -15
-8 -7 26 8 -14 -4 -13 -15
-8 -6 27 9 -14 -4 -13 -15
-9 -5 27 9 -14 -4 -13 -15
-9 -4 27 9 -14 -4 -13 -15
-10 -3 28 10 -14 -3 -12 -15
-8 -3 28 10 -14 -3 -12 -14
-7 -4 27 9 -13 -2 -11 -14
-6 -4 27 9 -13 -2 -11 -13
-5 -4 27 9 -13 -2 -11 -13
-4 -5 26 8 -12 0 -10 -12
-6 -6 26 8 -12 0 -10 -12
-7 -7 26 8 -12 0 -10 -12
-8 -7 26 8 -12 0 -10 -12
-9 -8 26 8 -12 0 -10 -12
-10 -9 26 8 -13 -2 -11 -12
-10 -9 26 8 -11 -2 -11 -12
-10 -9 26 9 -10 0 -10 -12
-10 -9 26 9 -9 0 -10 -12
-10 -9 26 9 -8 0 -10 -12
-10 -9 25 10 -7 1 -9 -12
-8 -7 25 10 -7 1 -9 -11
-7 -5 25 11 -7 2 -8 -10
-5 -2 25 11 -7 2 -8 -9
-4 1 25 11 -7 2 -8 -8
-3 1 26 12 -8 3 -7 -7
-3 0 24 11 -8 3 -8 -7
-3 -3 23 11 -9 4 -8 -7
-3 -4 21 10 -9 4 -9 -7
-3 -6 20 10 -9 4 -9 -7
-2 -7 19 9 -10 5 -10 -8
-2 -7 19 9 -10 5 -10 -8
-2 -7 19 9 -10 5 -9 -8
-2 -7 19 9 -10 5 -9 -8
-2 -7 19 9 -10 5 -9 -8
1 -7 20 10 -10 4 -8 -7
3 -5 20 10 -10 4 -8 -7
4 -4 21 11 -9 5 -7 -6
6 -2 21 11 -9 5 -7 -6
8 0 21 11 -9 5 -7 -6
9 1 22 12 -8 6 -5 -4
11 3 21 13 -7 8 -4 -2
12 4 21 14 -6 9 -2 1
13 5 20 15 -6 11 0 3
14 6 20 16 -5 12 2 5
15 7 19 17 -4 13 3 6
14 7 20 18 -3 13 4 6
13 7 21 18 -3 14 4 6
13 7 21 19 -2 14 5 6
12 7 22 19 -2 14 5 6
11 6 23 20 0 15 6 7
12 6 21 18 -3 13 4 6
12 5 20 17 -4 12 3 5
13 5 19 16 -5 11 2 4
13 5 18 15 -6 10 1 3
14 3 17 14 -7 9 0 2
14 1 16 13 -8 9 0 2
14 0 16 13 -8 8 0 2
14 -3 15 12 -9 8 0 2
14 -5 15 12 -9 8 0 2
14 -5 14 12 -10 7 -2 3
15 -3 14 13 -9 8 0 4
16 0 14 15 -8 9 1 5
16 2 14 16 -7 10 1 6
17 4 14 18 -6 11 2 7
18 5 15 19 -5 12 3 8
18 6 15 19 -5 12 3 8
19 8 14 18 -6 11 3 9
20 9 14 17 -7 11 3 9
20 10 14 17 -7 11 3 9
21 11 13 16 -8 10 3 10
21 10 12 15 -10 9 1 9
21 8 11 13 -11 7 0 7
21 7 10 12 -13 6 -3 6
21 6 9 11 -14 5 -4 5
21 5 8 9 -16 3 -6 4
20 5 7 7 -17 2 -8 3
19 4 6 5 -19 0 -10 2
18 4 5 3 -20 -3 -13 1
17 4 4 1 -22 -5 -15 0
16 3 3 0 -23 -6 -16 -2
15 3 3 0 -23 -6 -15 -2
14 3 4 0 -24 -7 -14 -2
13 3 5 0 -24 -7 -14 -2
12 3 5 0 -24 -7 -13 -2
11 3 6 -3 -26 -9 -13 0
11 3 5 -4 -27 -10 -16 -2
11 2 4 -6 -29 -12 -18 -4
11 2 4 -8 -30 -13 -21 -5
11 2 3 -10 -32 -15 -24 -6
11 1 3 -11 -33 -16 -25 -7
11 2 4 -11 -33 -17 -26 -8
10 3 6 -12 -34 -18 -27 -9
9 4 7 -12 -34 -19 -28 -9
9 5 9 -12 -34 -20 -29 -10
8 6 10 -13 -35 -21 -30 -11
8 6 10 -13 -35 -20 -30 -11
8 6 11 -13 -34 -19 -29 -10
8 6 12 -13 -33 -19 -28 -10
8 6 12 -13 -33 -18 -28 -10
8 7 13 -12 -32 -17 -27 -9
8 7 13 -12 -32 -17 -28 -10
8 6 13 -12 -33 -18 -29 -11
8 5 13 -12 -33 -18 -29 -12
8 5 13 -12 -33 -18 -30 -13
6 3 14 -13 -34 -18 -31 -14
5 1 15 -12 -32 -17 -30 -14
3 -2 16 -11 -31 -15 -28 -13
2 -4 17 -10 -29 -13 -27 -12
0 -7 18 -9 -28 -11 -26 -12
-2 -8 19 -8 -27 -10 -25 -11
-2 -6 19 -8 -27 -10 -25 -12
-2 -5 19 -8 -26 -10 -26 -13
-2 -3 19 -8 -26 -10 -26 -14
-2 -2 19 -8 -26 -10 -26 -15
-3 -2 19 -8 -25 -11 -27 -16
-3 -3 19 -8 -25 -10 -27 -16
-4 -5 19 -8 -25 -9 -26 -16
-4 -7 19 -8 -25 -9 -26 -16
-4 -9 19 -8 -25 -8 -26 -16
-5 -10 19 -9 -24 -7 -25 -15
-5 -10 20 -9 -24 -6 -25 -15
-6 -10 21 -9 -24 -5 -24 -15
-6 -10 21 -9 -24 -5 -24 -15
-6 -10 22 -9 -24 -4 -24 -15
-7 -10 23 -10 -24 -3 -23 -14
-8 -10 21 -10 -24 -3 -22 -14
-9 -10 20 -10 -25 -4 -21 -15
-9 -10 18 -10 -25 -4 -20 -16
-10 -10 17 -10 -25 -4 -19 -16
-11 -10 16 -11 -26 -5 -18 -17
-11 -10 17 -11 -26 -5 -17 -17
-10 -11 18 -11 -26 -5 -15 -17
-10 -11 19 -11 -26 -5 -14 -17
-10 -11 20 -11 -26 -5 -13 -17
-9 -12 21 -10 -27 -4 -11 -16
-9 -12 21 -10 -27 -4 -8 -16
-9 -12 21 -10 -27 -4 -6 -16
-9 -12 21 -10 -27 -4 -3 -16
-9 -12 21 -10 -27 -4 0 -16
-8 -12 20 -10 -27 -5 2 -16
-7 -11 20 -10 -27 -5 4 -15
-6 -9 21 -10 -27 -4 6 -14
-6 -8 21 -10 -27 -3 7 -13
-5 -7 21 -10 -27 -3 9 -12
-4 -6 22 -9 -27 -2 10 -11
-5 -6 22 -8 -26 0 12 -10
-6 -5 22 -7 -25 1 13 -9
-6 -5 22 -7 -24 2 15 -8
-7 -5 22 -6 -23 3 16 -7
-8 -5 21 -5 -22 4 16 -7
-7 -7 21 -6 -23 3 14 -8
-6 -9 21 -7 -24 2 11 -10
-6 -11 21 -7 -24 2 9 -12
-5 -14 21 -8 -25 1 6 -14
-4 -15 21 -9 -26 0 5 -15
-4 -14 21 -8 -26 1 6 -14
-4 -13 22 -7 -25 2 8 -13
-4 -12 23 -6 -24 3 9 -13
-4 -11 23 -5 -24 4 10 -12
-4 -10 24 -4 -23 5 11 -11
-6 -12 23 -5 -21 5 11 -12
-8 -14 21 -6 -19 4 10 -13
-9 -15 20 -6 -18 3 9 -13
-11 -17 19 -7 -16 3 9 -14
-11 -18 18 -8 -14 2 8 -14
-10 -17 19 -8 -11 3 10 -13
-8 -15 20 -7 -9 4 11 -11
-6 -14 20 -6 -6 5 13 -9
-4 -13 21 -6 -4 6 14 -7
-3 -12 22 -5 -2 7 15 -6
-5 -12 22 -6 -2 6 14 -7
-7 -13 21 -7 -2 5 12 -9
-8 -14 20 -8 -2 5 11 -10
-10 -14 20 -9 -2 4 10 -11
-10 -14 19 -10 0 3 9 -12
-8 -11 19 -10 0 3 9 -12
-5 -8 19 -9 1 3 10 -11
-3 -5 19 -9 1 3 11 -10
0 -2 19 -9 1 3 11 -10
2 1 19 -8 2 2 12 -10
1 0 19 -10 0 1 11 -11
0 -3 18 -11 -3 0 9 -13
0 -4 18 -12 -4 0 8 -15
-2 -5 18 -14 -6 -2 7 -17
-3 -6 17 -15 -7 -3 6 -18
-5 -6 17 -15 -6 -2 6 -17
-6 -6 18 -15 -5 0 6 -16
-7 -6 18 -15 -5 0 6 -16
-9 -6 18 -15 -4 1 6 -15
-10 -5 19 -14 -3 2 7 -14
-8 -5 18 -15 -4 1 6 -15
-6 -5 16 -16 -5 -2 5 -17
-5 -5 15 -17 -6 -3 4 -18
-3 -5 14 -18 -7 -4 3 -19
-2 -6 13 -19 -8 -5 2 -20
-2 -6 15 -19 -8 -4 2 -20
-3 -5 16 -18 -7 -3 2 -19
-3 -5 17 -17 -6 -3 2 -19
-3 -5 19 -17 -6 -2 2 -19
-4 -4 20 -16 -5 0 3 -18
-4 -4 19 -16 -6 0 3 -18
-4 -5 18 -17 -7 -2 3 -19
-4 -5 17 -18 -8 -3 3 -19
-4 -5 16 -18 -9 -3 3 -19
-5 -6 15 -19 -11 -5 3 -20
-5 -8 15 -19 -13 -7 2 -21
-5 -9 14 -20 -15 -9 1 -23
-5 -10 13 -20 -17 -11 0 -24
-5 -12 13 -20 -20 -13 -2 -25
-6 -13 12 -20 -20 -14 -3 -26
-6 -12 13 -17 -18 -12 -3 -25
-6 -10 14 -14 -16 -11 -3 -24
-6 -9 15 -11 -14 -10 -3 -23
-6 -8 16 -8 -12 -8 -3 -22
-7 -7 17 -6 -9 -7 -2 -21
-7 -7 16 -4 -7 -7 -2 -21
-8 -8 15 -3 -5 -7 -2 -21
-8 -9 15 -2 -3 -7 -2 -21
-8 -9 14 1 0 -7 -2 -21
-9 -10 13 2 2 -8 -2 -22
-9 -10 13 2 0 -9 -3 -23
-8 -9 13 2 -2 -10 -5 -24
-7 -8 13 2 -3 -11 -6 -24
-7 -8 13 2 -5 -12 -7 -25
-6 -7 14 2 -6 -13 -8 -26
-6 -7 12 0 -6 -13 -8 -26
-6 -8 11 -3 -7 -14 -8 -26
-6 -8 10 -4 -7 -14 -8 -26
-6 -8 8 -6 -7 -14 -8 -26
-6 -9 7 -7 -8 -15 -9 -26
-7 -8 7 -7 -8 -15 -9 -26
-8 -7 8 -6 -7 -15 -10 -25
-8 -7 8 -5 -6 -15 -10 -24
-9 -6 8 -5 -6 -15 -10 -24
-10 -5 9 -4 -5 -15 -11 -23
-8 -5 10 -3 -4 -15 -11 -21
-6 -5 11 -2 -2 -16 -12 -20
-4 -5 11 0 0 -17 -13 -19
-2 -5 12 1 1 -17 -13 -17
-2 -6 13 2 2 -18 -14 -16
-4 -5 13 0 1 -18 -13 -14
-6 -3 12 -3 -2 -17 -12 -12
-8 -2 12 -4 -3 -16 -12 -10
-10 0 12 -6 -4 -16 -11 -8
-11 1 11 -7 -5 -15 -10 -7
-9 0 10 -7 -5 -15 -10 -7
-8 -2 9 -7 -6 -16 -11 -7
-7 -3 8 -7 -6 -16 -11 -7
-5 -4 7 -7 -6 -16 -11 -7
-4 -5 6 -8 -7 -17 -12 -7
-5 -5 7 -8 -7 -17 -12 -7
-6 -4 8 -8 -7 -18 -11 -8
-7 -4 8 -8 -7 -18 -10 -8
-8 -4 9 -8 -7 -18 -10 -8
-9 -3 10 -9 -8 -19 -9 -9
-9 -3 10 -9 -8 -19 -9 -9
-9 -3 10 -10 -8 -19 -9 -9
-9 -3 10 -10 -8 -19 -9 -9
-9 -3 10 -10 -8 -19 -9 -9
-8 -4 9 -11 -9 -20 -9 -10
-8 -4 9 -10 -9 -20 -9 -10
-7 -4 8 -9 -9 -20 -9 -11
-6 -4 7 -9 -9 -20 -9 -11
-6 -4 7 -8 -9 -20 -9 -11
-5 -4 6 -7 -10 -20 -9 -12
-6 -5 6 -6 -10 -20 -9 -12
-7 -6 6 -4 -10 -21 -10 -12
-8 -6 6 -3 -10 -21 -10 -12
-9 -7 6 -2 -10 -21 -10 -12
-10 -8 7 -2 -11 -22 -11 -12
-10 -8 7 -3 -10 -22 -11 -12
-10 -7 7 -5 -10 -22 -11 -12
-9 -6 7 -7 -9 -21 -11 -12
-9 -6 7 -9 -8 -21 -11 -12
-8 -5 7 -11 -7 -20 -10 -12
-9 -7 7 -10 -7 -19 -10 -12
-10 -8 7 -9 -6 -18 -10 -12
-11 -9 6 -8 -5 -17 -10 -12
-12 -11 6 -7 -5 -16 -10 -12
-13 -12 5 -6 -4 -15 -9 -12
-12 -10 5 -6 -4 -14 -9 -13
-11 -9 5 -7 -4 -13 -9 -13
-9 -8 5 -8 -4 -11 -10 -14
-8 -6 5 -8 -4 -10 -10 -15
-7 -5 4 -9 -5 -8 -11 -16
-6 -4 6 -8 -4 -6 -9 -14
-6 -4 7 -7 -3 -4 -7 -13
-5 -3 9 -6 -2 0 -5 -12
-4 -2 11 -5 0 2 -3 -10
-3 0 12 -4 1 3 0 -9
-4 -3 10 -5 -2 0 -3 -11
-5 -5 8 -6 -4 -3 -4 -13
-6 -7 6 -8 -6 -6 -5 -15
-7 -9 4 -9 -8 -9 -7 -17
-8 -10 2 -10 -9 -11 -7 -18
-8 -9 2 -8 -8 -10 -5 -18
-8 -9 2 -7 -7 -9 -3 -18
-9 -8 2 -5 -5 -7 1 -17
-9 -7 2 -3 -4 -6 3 -17
-10 -6 3 -2 -3 -5 5 -16
-10 -5 4 -4 -3 -4 3 -15
-9 -5 5 -5 -4 -4 2 -15
-8 -4 7 -7 -5 -3 0 -14
-8 -3 8 -9 -5 -2 -3 -13
-7 -2 9 -10 -6 0 -4 -12
-7 -3 8 -10 -6 0 -4 -13
-7 -4 8 -10 -6 -2 -4 -14
-7 -6 7 -10 -6 -3 -3 -15
-7 -7 6 -10 -6 -3 -3 -16
-7 -8 5 -11 -7 -4 -2 -17
-9 -8 5 -11 -7 -4 -2 -17
-11 -8 5 -11 -7 -4 -2 -17
-13 -8 5 -11 -6 -4 -2 -17
-15 -8 5 -11 -6 -4 -2 -17
-17 -9 6 -10 -5 -4 -3 -16
-16 -8 6 -8 -4 -3 -3 -14
-15 -7 6 -6 -4 -3 -2 -12
-14 -6 6 -3 -3 -2 0 -10
-13 -5 6 0 -2 0 0 -8
-12 -4 7 2 0 1 1 -7
-12 -5 7 0 0 0 0 -9
-12 -6 7 -2 -2 0 0 -10
-12 -7 7 -4 -3 -2 -2 -11
-12 -8 7 -6 -3 -3 -3 -13
-11 -8 7 -7 -4 -4 -4 -14
-9 -4 9 -5 -2 -2 -2 -12
-7 1 11 -4 1 1 0 -11
-5 5 13 -2 3 3 2 -9
-3 8 15 1 5 5 4 -7
0 10 16 2 6 6 5 -6
-2 8 14 0 4 5 4 -7
-3 5 12 -2 3 4 3 -8
-5 3 10 -3 2 3 2 -10
-6 0 8 -5 0 2 1 -11
-7 -3 6 -6 -2 1 0 -12
-6 0 8 -4 1 3 2 -10
-5 1 10 -3 2 4 3 -9
-4 2 12 0 4 6 5 -7
-3 4 14 2 6 8 7 -5
-2 6 15 3 7 9 8 -4
1 9 15 3 8 9 8 -4
3 11 15 3 8 9 8 -4
5 14 16 3 9 10 9 -3
6 17 16 3 10 10 9 -3
8 19 17 4 11 11 10 -2
6 18 16 2 10 10 10 -2
4 17 15 1 9 9 10 -2
2 15 13 0 7 8 9 -3
1 14 12 -3 6 7 9 -3
-2 13 11 -4 5 6 8 -4
1 15 8 -6 3 4 6 -5
3 16 6 -8 1 3 5 -6
5 17 4 -10 -2 1 3 -7
6 19 2 -12 -3 -2 1 -8
8 20 0 -14 -5 -3 0 -9
8 17 0 -14 -5 -3 0 -9
8 15 -2 -14 -5 -2 1 -9
8 13 -3 -14 -5 0 2 -8
8 11 -3 -14 -5 0 2 -8
7 9 -4 -14 -5 1 3 -7
7 8 -4 -14 -5 0 2 -8
7 7 -4 -14 -5 0 2 -8
7 5 -5 -14 -6 -2 1 -9
7 4 -5 -14 -6 -3 0 -10
6 3 -6 -15 -7 -4 -2 -11
4 3 -5 -15 -7 -4 -2 -11
3 3 -5 -15 -7 -4 -2 -11
1 3 -4 -15 -6 -4 -2 -11
-2 3 -3 -15 -6 -4 -2 -11
-3 1 -2 -15 -5 -5 -2 -12
-5 -2 -2 -16 -6 -6 -3 -13
-6 -5 -2 -17 -6 -7 -5 -15
-8 -7 -2 -18 -7 -9 -6 -16
-10 -10 -2 -19 -8 -10 -8 -18
-11 -12 -3 -20 -9 -11 -9 -19
-11 -12 -3 -20 -9 -11 -9 -19
-11 -12 -3 -20 -9 -11 -9 -19
-11 -13 -2 -20 -10 -11 -9 -20
-11 -13 -2 -20 -10 -11 -9 -20
-11 -15 0 -21 -11 -11 -9 -21
-12 -19 2 -21 -11 -11 -9 -21
-13 -22 4 -21 -11 -11 -9 -22
-15 -26 6 -21 -12 -12 -10 -23
-16 -29 8 -21 -12 -12 -10 -23
-17 -31 11 -20 -13 -13 -11 -24
-16 -27 14 -19 -12 -13 -11 -24
-15 -23 17 -17 -11 -13 -11 -24
-13 -20 20 -16 -9 -12 -11 -25
-12 -16 24 -14 -8 -12 -11 -25
-11 -14 29 -10 -4 -10 -12 -27
-13 -17 37 0 5 -6 -12 -29
-15 -20 46 10 13 -3 -12 -32
-17 -23 54 19 21 2 -12 -34
-18 -27 63 28 29 5 -12 -37
-18 -29 70 42 42 16 -6 -34
-14 -27 75 61 59 37 14 -21
-9 -25 80 80 77 59 33 -8
-4 -23 87 99 95 80 52 6
2 -21 92 118 113 102 71 19
11 -17 98 139 134 129 99 39
24 -9 103 160 157 162 138 70
37 -2 108 181 181 196 176 102
51 7 113 202 204 231 215 134
64 14 118 224 228 265 254 165
76 26 114 225 236 286 283 193
89 45 91 193 218 286 297 215
101 63 67 160 199 285 311 236
113 81 45 128 180 284 325 258
126 99 21 96 161 284 339 279
125 109 1 52 126 253 318 273
101 102 -18 -9 63 172 241 222
77 95 -36 -70 0 92 163 171
53 88 -55 -132 -63 11 87 119
29 80 -73 -193 -126 -69 9 68
12 70 -89 -234 -170 -126 -47 28
6 57 -99 -242 -183 -142 -66 7
1 44 -108 -251 -196 -159 -87 -15
-6 30 -118 -259 -210 -177 -106 -36
-12 17 -129 -267 -223 -193 -126 -57
-16 6 -130 -262 -224 -198 -137 -71
-16 1 -114 -234 -202 -180 -131 -71
-15 -6 -98 -205 -181 -161 -124 -71
-14 -11 -82 -178 -159 -143 -118 -70
-14 -17 -67 -150 -138 -124 -111 -70
-13 -21 -53 -124 -117 -107 -102 -67
-13 -20 -40 -104 -101 -93 -87 -60
-13 -19 -28 -83 -83 -77 -71 -53
-12 -18 -16 -64 -66 -63 -56 -47
-12 -17 -4 -44 -50 -49 -40 -39
-11 -16 5 -29 -37 -38 -30 -34
-12 -16 7 -25 -35 -35 -29 -33
-13 -16 8 -21 -32 -33 -27 -33
-14 -16 10 -18 -29 -31 -26 -32
-15 -16 11 -14 -26 -29 -24 -31
-16 -16 13 -10 -24 -27 -23 -30
-15 -14 16 -7 -22 -26 -23 -30
-13 -12 19 -4 -20 -25 -22 -30
-12 -10 21 0 -18 -24 -21 -30
-10 -9 24 3 -17 -23 -21 -30
-9 -7 26 5 -15 -22 -20 -29
-7 -8 26 7 -14 -21 -19 -28
-6 -8 26 9 -12 -19 -19 -28
-4 -9 27 11 -11 -18 -18 -27
-3 -10 27 12 -9 -16 -17 -26
-2 -11 28 14 -8 -15 -16 -25
-5 -12 27 13 -8 -15 -16 -26
-8 -14 27 12 -8 -15 -16 -26
-11 -15 26 11 -9 -15 -16 -27
-14 -17 25 10 -9 -15 -16 -28
-16 -18 24 9 -10 -15 -17 -29
-15 -17 25 9 -9 -14 -17 -29
-14 -16 26 9 -8 -14 -17 -29
-13 -15 28 9 -7 -13 -16 -28
-12 -14 29 9 -6 -12 -16 -28
-11 -13 30 9 -5 -11 -15 -27
-11 -13 30 10 -5 -11 -15 -27
-11 -13 29 10 -5 -11 -14 -27
-11 -14 28 11 -5 -11 -13 -27
-11 -14 28 12 -5 -11 -13 -27
-12 -15 27 13 -5 -10 -12 -27
-11 -14 27 13 -5 -10 -12 -27
-10 -13 26 13 -5 -10 -12 -26
-8 -11 25 13 -5 -9 -11 -25
-7 -10 25 13 -5 -9 -11 -25
-6 -9 24 12 -4 -8 -10 -24
-6 -9 25 12 -4 -8 -10 -24
-6 -9 25 12 -4 -8 -10 -24
-6 -9 26 13 -4 -8 -11 -24
-6 -9 27 13 -4 -8 -11 -24
-7 -10 28 14 -3 -9 -12 -25
-6 -10 28 14 -2 -8 -11 -24
-5 -10 28 14 0 -7 -10 -22
-3 -10 27 13 1 -6 -8 -21
-2 -10 27 13 2 -5 -7 -19
0 -11 26 12 3 -4 -6 -18
-3 -11 26 12 3 -4 -6 -18
-5 -11 25 12 3 -4 -6 -19
-7 -11 24 13 3 -4 -7 -20
-8 -11 24 13 3 -4 -7 -20
-9 -11 23 14 3 -5 -8 -21
-6 -11 23 15 3 -5 -8 -21
-3 -11 24 16 3 -5 -8 -21
1 -11 24 17 3 -5 -9 -22
4 -11 25 18 3 -5 -9 -22
7 -10 26 19 4 -5 -10 -23
6 -9 26 19 4 -5 -9 -22
4 -9 26 19 4 -4 -9 -21
3 -8 25 19 5 -4 -8 -20
1 -7 25 19 5 -3 -7 -19
0 -6 24 18 6 -2 -6 -18
-2 -6 24 18 7 -2 -6 -17
-2 -6 24 18 7 -2 -6 -17
-3 -6 24 18 8 -2 -5 -16
-4 -6 24 18 9 -2 -5 -15
-5 -7 23 19 10 -2 -4 -14
-4 -7 23 19 9 -2 -4 -14
-3 -6 23 19 8 -2 -3 -14
-2 -6 23 19 7 -2 -3 -14
1 -5 23 19 6 -2 -2 -14
2 -4 22 18 5 0 0 -13
2 -4 21 18 5 0 0 -13
2 -3 21 18 5 0 0 -13
2 -3 20 18 6 0 0 -13
2 -2 19 18 6 0 0 -13
3 0 18 19 7 1 1 -12
5 0 18 19 7 1 1 -12
6 0 19 20 8 2 1 -12
8 0 19 20 8 2 1 -11
9 0 20 21 9 3 1 -11
11 1 21 22 10 4 2 -10
10 1 21 22 10 4 2 -9
9 1 21 22 10 5 3 -8
8 1 20 23 11 5 3 -7
7 1 20 23 11 6 4 -6
6 0 19 24 12 7 5 -5
6 0 19 24 12 7 5 -5
7 1 19 25 12 7 5 -5
7 1 18 25 12 7 5 -4
8 2 18 26 12 7 5 -4
9 3 17 27 13 8 6 -3
10 3 17 27 13 8 6 -3
10 3 17 27 13 8 6 -3
11 3 16 27 13 8 6 -3
12 3 16 27 13 8 6 -3
13 3 15 27 12 9 7 -2
16 3 14 26 12 8 7 -2
19 3 12 26 11 8 6 -3
22 4 11 25 11 7 6 -3
25 4 9 24 10 6 5 -4
28 5 8 23 9 5 4 -5
26 6 9 23 9 5 4 -4
24 7 9 23 9 5 4 -3
23 8 10 23 9 5 5 -2
21 10 11 23 9 5 5 0
19 11 12 24 9 6 6 1
18 9 12 23 8 5 6 1
17 6 11 23 7 4 5 1
16 4 11 22 6 3 5 1
15 2 10 21 5 2 4 1
14 1 9 20 4 1 3 0
16 5 9 19 4 0 2 0
19 9 9 19 3 -3 1 0
21 13 9 18 3 -4 0 0
23 17 9 17 2 -5 -3 0
25 21 8 16 1 -7 -4 1
23 17 7 15 -2 -8 -5 -2
21 14 7 13 -3 -9 -6 -4
20 10 6 12 -5 -10 -7 -6
18 7 5 11 -6 -12 -8 -8
16 4 4 9 -8 -13 -9 -10
15 6 4 8 -8 -14 -10 -10
15 7 5 8 -8 -15 -11 -10
14 9 5 7 -7 -16 -12 -11
13 10 6 6 -7 -17 -13 -11
12 12 7 5 -6 -18 -14 -12
13 13 7 5 -7 -19 -15 -13
14 14 8 4 -9 -20 -16 -14
15 15 8 4 -10 -21 -17 -15
16 16 9 3 -11 -22 -19 -17
17 17 10 2 -13 -23 -20 -18
14 13 9 1 -13 -24 -21 -18
12 10 9 0 -13 -24 -21 -19
10 7 8 -2 -14 -25 -22 -19
7 4 7 -3 -14 -26 -23 -20
5 1 6 -4 -15 -27 -24 -21
5 1 8 -3 -14 -27 -24 -21
5 2 9 -3 -13 -26 -24 -21
4 2 11 -2 -12 -26 -25 -22
4 3 12 0 -11 -25 -25 -22
3 4 14 1 -10 -24 -26 -23
2 4 14 1 -9 -23 -25 -23
0 4 14 1 -8 -22 -25 -23
-2 3 14 2 -7 -21 -24 -23
-3 3 14 2 -6 -20 -23 -23
-5 2 15 3 -5 -19 -22 -24
-5 2 15 3 -4 -18 -22 -24
-5 2 16 3 -4 -17 -22 -24
-5 1 16 4 -3 -16 -21 -24
-5 1 17 4 -2 -15 -21 -24
-6 0 18 5 0 -14 -20 -23
-5 0 18 5 0 -14 -20 -23
-4 0 18 5 0 -14 -20 -23
-3 0 18 5 0 -14 -19 -23
0 0 18 5 0 -14 -19 -23
1 1 18 6 -2 -13 -18 -24
1 1 18 6 -2 -13 -18 -24
0 1 19 6 -2 -13 -18 -24
0 0 20 5 -2 -12 -18 -25
-2 0 21 5 -2 -12 -18 -25
-3 -2 22 4 -2 -11 -17 -26
-6 -3 21 4 -3 -11 -17 -26
-8 -5 19 4 -4 -12 -18 -27
-11 -7 18 3 -5 -12 -19 -28
-14 -8 17 3 -6 -13 -20 -29
-16 -10 15 2 -7 -14 -21 -30
-14 -10 16 2 -7 -13 -21 -29
-12 -9 17 2 -7 -12 -21 -28
-11 -8 18 2 -6 -11 -21 -27
-9 -7 20 2 -6 -10 -21 -25
-7 -6 21 2 -5 -9 -20 -24
-7 -5 20 2 -5 -10 -20 -25
-6 -3 18 3 -4 -11 -20 -26
-6 0 16 3 -3 -12 -20 -27
-5 1 15 4 -2 -14 -20 -28
-4 3 13 5 0 -15 -21 -29
-6 2 14 5 0 -15 -21 -29
-9 1 15 6 0 -14 -20 -29
-11 0 16 6 0 -14 -20 -28
-14 -2 18 7 0 -13 -19 -28
-16 -3 19 8 0 -12 -18 -27
-14 -3 19 8 0 -12 -18 -27
-11 -3 18 8 0 -12 -18 -27
-9 -3 18 7 0 -12 -18 -27
-6 -3 17 7 0 -12 -18 -27
-4 -3 16 6 -2 -11 -18 -28
-4 -3 16 7 -2 -11 -18 -28
-4 -3 16 8 -2 -10 -18 -27
-3 -3 16 9 0 -10 -17 -27
-3 -3 16 10 0 -9 -17 -26
-2 -2 17 11 1 -8 -16 -25
-2 -2 17 11 1 -8 -16 -25
-2 -2 17 11 1 -8 -16 -25
-2 0 18 11 1 -8 -15 -24
-2 0 18 11 1 -8 -15 -24
-3 1 19 10 2 -7 -14 -23
-3 1 19 10 2 -7 -14 -23
-3 1 18 10 2 -7 -14 -23
-3 0 18 10 2 -7 -14 -23
-3 0 17 10 2 -7 -14 -23
-4 -2 16 11 2 -7 -14 -22
-4 -2 16 11 2 -7 -14 -22
-3 -2 16 11 2 -7 -13 -22
-2 0 16 10 2 -6 -13 -22
0 0 16 10 2 -6 -12 -22
1 1 16 9 2 -5 -11 -21
0 1 18 10 3 -4 -10 -20
-3 1 19 12 5 -2 -9 -19
-4 1 21 13 7 0 -8 -18
-5 1 23 14 8 1 -7 -17
-7 2 25 16 10 3 -6 -16
-7 1 24 14 9 2 -7 -16
-6 0 22 13 8 0 -8 -17
-6 -2 20 11 7 -2 -9 -17
-5 -3 19 9 5 -3 -10 -18
-4 -4 17 7 4 -5 -11 -19
-4 -3 17 8 4 -5 -11 -19
-4 -2 17 9 4 -5 -11 -19
-4 0 17 10 4 -4 -11 -19
-4 2 17 12 4 -4 -11 -19
-3 3 17 13 5 -3 -11 -20
-3 3 17 12 5 -3 -11 -20
-3 2 17 11 4 -3 -12 -21
-4 1 17 10 4 -4 -12 -22
-4 0 17 9 3 -4 -13 -23
-5 -2 17 8 2 -5 -14 -24
-5 -2 17 8 2 -5 -14 -24
-5 -2 17 8 2 -5 -14 -23
-5 0 18 8 2 -5 -13 -23
-5 0 18 8 2 -5 -13 -22
-4 1 19 9 2 -4 -12 -21
-3 1 18 9 2 -4 -12 -21
-2 0 17 8 2 -5 -13 -22
0 0 16 7 1 -5 -14 -22
1 -2 15 6 1 -6 -15 -23
2 -3 14 5 0 -7 -16 -24
0 -4 14 5 0 -8 -16 -25
-2 -6 14 4 -2 -9 -15 -26
-4 -7 14 4 -2 -10 -15 -27
-6 -8 14 3 -3 -12 -14 -28
-8 -10 14 2 -4 -13 -13 -29
-8 -8 14 2 -4 -13 -12 -29
-8 -5 14 2 -4 -13 -10 -29
-8 -3 14 3 -5 -12 -8 -29
-8 1 14 3 -5 -12 -7 -29
-7 3 14 4 -6 -11 -5 -28
-6 2 14 4 -6 -11 -4 -28
-5 1 14 3 -6 -11 -3 -28
-4 0 14 3 -6 -11 -2 -28
-3 -3 14 2 -6 -11 1 -28
-2 -4 14 1 -5 -11 2 -27
-2 -4 14 1 -5 -11 2 -27
-2 -3 14 1 -5 -11 1 -27
-2 -3 14 1 -5 -12 1 -27
-2 -2 14 1 -5 -12 0 -27
-2 0 14 2 -6 -13 -2 -27
-4 -2 14 2 -6 -13 -2 -26
-5 -4 13 1 -7 -14 -3 -25
-7 -5 13 0 -8 -14 -4 -24
-9 -6 12 -2 -9 -15 -5 -23
-11 -8 11 -3 -10 -16 -6 -21
-11 -8 11 -3 -10 -16 -6 -21
-10 -8 11 -3 -10 -16 -6 -20
-9 -8 11 -3 -10 -16 -6 -20
-8 -8 11 -3 -10 -16 -6 -19
-7 -8 10 -3 -10 -16 -7 -18
-7 -7 10 -3 -10 -16 -6 -16
-7 -6 11 -2 -9 -16 -5 -15
-7 -5 12 -2 -9 -16 -4 -13
-7 -4 13 0 -8 -16 -3 -11
-7 -3 14 1 -7 -16 0 -9
-6 -3 14 1 -7 -16 0 -7
-4 -3 13 0 -7 -16 0 -4
-3 -3 13 0 -7 -16 -2 -2
-2 -3 12 -2 -7 -16 -2 1
1 -4 11 -3 -8 -16 -3 4
-2 -5 11 -3 -8 -16 -3 3
-4 -7 10 -4 -9 -17 -4 1
-6 -9 10 -4 -9 -18 -5 0
-9 -10 9 -5 -10 -19 -6 -2
-11 -12 8 -6 -11 -20 -7 -4
-10 -11 8 -6 -11 -19 -7 -4
-8 -9 8 -6 -11 -17 -7 -4
-6 -7 8 -6 -11 -16 -7 -4
-5 -6 8 -6 -11 -15 -7 -4
-3 -4 7 -6 -10 -13 -7 -5
-4 -4 7 -6 -10 -11 -7 -5
-5 -4 8 -5 -10 -10 -7 -6
-6 -5 9 -5 -10 -8 -7 -6
-7 -5 10 -4 -10 -6 -7 -7
-8 -6 11 -3 -9 -4 -6 -8
-8 -6 11 -3 -9 -3 -5 -8
-8 -6 10 -4 -10 -2 -4 -7
-8 -7 9 -4 -11 0 -3 -7
-8 -7 8 -5 -12 1 -2 -6
-7 -8 7 -6 -13 3 0 -5
-6 -8 7 -6 -13 3 0 -5
-5 -8 7 -7 -13 2 -2 -5
-3 -9 6 -7 -13 2 -3 -6
-2 -9 6 -8 -13 1 -4 -6
1 -10 5 -9 -14 0 -5 -7
0 -10 5 -9 -14 0 -5 -7
-3 -9 5 -8 -14 0 -4 -7
-5 -8 5 -8 -13 0 -4 -6
-6 -7 5 -7 -13 0 -3 -6
-8 -6 4 -6 -12 1 -2 -5
-8 -6 4 -6 -12 1 -2 -5
-8 -6 5 -6 -12 1 -2 -5
-9 -5 6 -6 -11 1 -2 -5
-9 -5 7 -6 -11 1 -2 -5
-10 -4 8 -5 -10 2 -3 -6
-9 -4 8 -5 -10 2 -3 -6
-8 -4 8 -5 -10 2 -3 -6
-6 -4 7 -5 -11 2 -3 -6
-5 -4 7 -5 -11 2 -3 -6
-3 -5 6 -6 -12 1 -3 -7
-3 -5 6 -6 -12 1 -3 -7
-3 -4 6 -6 -12 1 -3 -7
-3 -4 7 -6 -11 1 -3 -6
-3 -3 7 -6 -11 1 -3 -6
-3 -2 8 -6 -10 1 -4 -5
-4 -3 7 -6 -10 1 -4 -5
-5 -4 5 -6 -11 0 -4 -6
-7 -6 4 -7 -11 -2 -5 -7
-8 -7 2 -7 -12 -3 -5 -8
-10 -9 0 -8 -13 -4 -6 -9
-9 -9 1 -8 -13 -4 -6 -9
-8 -9 3 -9 -13 -4 -7 -9
-7 -9 4 -9 -14 -4 -7 -10
-6 -9 6 -10 -14 -4 -8 -10
-5 -9 8 -11 -15 -5 -9 -11
-5 -9 8 -11 -15 -5 -8 -11
-5 -9 7 -11 -15 -5 -7 -10
-6 -9 7 -11 -14 -4 -6 -10
-6 -9 6 -11 -14 -4 -5 -9
-7 -8 5 -10 -13 -3 -3 -8
-7 -8 5 -10 -12 -3 -3 -8
-8 -8 5 -10 -11 -3 -2 -8
-9 -9 5 -9 -10 -3 -2 -8
-10 -9 5 -9 -9 -3 0 -8
-11 -10 4 -8 -8 -2 1 -8
-11 -10 4 -8 -8 -2 1 -8
-10 -9 4 -8 -9 -2 1 -8
-9 -9 3 -8 -9 -2 1 -8
-8 -8 3 -8 -10 -2 1 -8
-7 -7 2 -7 -11 -2 1 -7
-6 -7 2 -7 -11 -2 1 -7
-5 -6 2 -7 -11 -2 1 -8
-4 -5 2 -8 -11 -2 0 -8
-3 -4 2 -8 -11 -2 0 -9
-2 -3 3 -9 -10 0 -2 -10
-2 -3 3 -9 -10 0 -2 -10
-3 -3 3 -10 -10 0 0 -9
-4 -3 3 -10 -10 0 0 -9
-5 -3 3 -11 -10 0 1 -8
-6 -4 3 -12 -10 -2 2 -7
-6 -4 4 -11 -10 -2 2 -7
-6 -4 5 -10 -10 0 2 -7
-6 -3 6 -9 -9 0 2 -7
-6 -3 7 -8 -9 1 2 -7
-5 -2 8 -6 -8 2 3 -6
-5 -3 7 -6 -8 2 2 -7
-5 -5 6 -7 -9 1 1 -8
-5 -6 5 -8 -9 0 0 -9
-5 -8 4 -9 -10 -2 -2 -10
-4 -10 3 -10 -11 -3 -3 -11
-4 -10 3 -10 -11 -3 -3 -11
-4 -9 3 -10 -11 -3 -3 -11
-5 -9 4 -10 -11 -3 -2 -10
-5 -8 4 -10 -11 -3 -2 -10
-6 -7 5 -10 -10 -4 0 -9
-6 -7 5 -10 -10 -4 0 -9
-6 -6 5 -9 -9 -3 0 -9
-6 -5 5 -8 -9 -2 0 -9
-6 -4 5 -7 -8 0 0 -9
-5 -3 5 -6 -7 1 1 -9
-5 -3 6 -5 -7 1 1 -8
-5 -2 7 -4 -6 2 2 -7
-4 -2 8 -3 -5 2 3 -6
-4 0 9 -2 -4 3 4 -5
-3 1 11 1 -3 4 5 -4
-3 2 11 1 -3 4 5 -4
-2 3 11 1 -2 5 5 -4
-2 4 11 2 0 6 6 -4
0 5 11 2 1 7 6 -4
1 7 12 3 2 8 7 -3
3 9 12 3 2 9 8 -2
6 12 12 3 3 10 9 0
8 15 12 4 4 11 10 2
11 18 12 4 5 12 11 3
14 21 13 5 6 14 13 5
13 19 11 3 5 13 12 4
12 17 9 1 3 11 10 3
10 15 7 -2 2 10 9 2
9 13 5 -4 0 8 7 1
7 11 2 -6 -3 6 5 -2
7 12 2 -7 -4 6 5 -2
8 13 1 -8 -5 5 5 -2
9 14 0 -9 -6 4 4 -2
10 15 -2 -10 -7 3 4 -2
11 16 -3 -11 -9 2 3 -2
11 14 -4 -11 -9 2 3 -2
10 12 -5 -11 -9 2 3 -2
9 10 -6 -11 -9 2 3 -2
8 8 -7 -11 -9 2 3 -2
7 6 -9 -12 -10 1 4 0
8 7 -9 -12 -10 0 2 -3
9 8 -9 -12 -10 -2 0 -5
10 9 -10 -12 -11 -4 -3 -7
11 10 -10 -12 -11 -5 -5 -9
12 12 -11 -13 -12 -7 -7 -11
10 10 -10 -13 -12 -6 -6 -10
8 8 -9 -12 -11 -5 -5 -9
5 5 -7 -12 -10 -4 -4 -8
3 3 -6 -11 -9 -3 -3 -7
0 0 -4 -10 -8 0 0 -6
-3 -4 -5 -11 -9 -3 -3 -8
-5 -7 -6 -13 -11 -5 -5 -10
-8 -10 -7 -14 -13 -7 -8 -12
-10 -13 -8 -16 -15 -9 -10 -14
-13 -16 -10 -18 -17 -12 -13 -17
-11 -15 -9 -17 -17 -12 -13 -17
-9 -13 -7 -16 -16 -11 -13 -17
-7 -11 -6 -15 -16 -11 -12 -17
-5 -9 -4 -14 -15 -10 -12 -17
-2 -7 -2 -13 -14 -9 -11 -17
-2 -8 -3 -12 -14 -9 -11 -17
-3 -9 -4 -10 -14 -10 -12 -18
-4 -10 -5 -8 -14 -10 -13 -19
-5 -11 -6 -6 -14 -11 -14 -20
-6 -13 -7 -4 -14 -12 -15 -21
-6 -13 -7 -2 -14 -12 -15 -21
