I II V1 V2 V3 V4 V5 V6
22 26 8 31 28 29 27 21
21 24 8 31 27 27 26 19
19 22 9 30 25 25 24 17
17 19 9 29 23 23 22 15
15 17 10 28 21 21 20 13
14 15 10 28 20 19 19 11
12 13 11 27 19 18 17 10
10 11 12 26 18 17 16 9
8 9 12 26 17 16 14 8
6 7 13 25 16 15 13 7
4 5 13 25 16 15 12 7
3 4 14 23 13 12 10 5
2 3 14 21 11 9 8 3
1 2 13 19 9 7 6 1
0 1 13 17 7 4 4 -2
-2 0 13 15 5 2 2 -4
-3 -3 12 13 3 1 1 -5
-4 -4 12 12 2 0 1 -6
-5 -6 11 10 0 0 0 -7
-6 -7 11 9 -2 -2 0 -8
-7 -8 11 8 -3 -2 0 -8
-8 -9 10 6 -5 -4 -3 -9
-9 -10 9 5 -6 -5 -4 -10
-9 -10 8 4 -7 -6 -5 -11
-10 -11 7 3 -8 -7 -6 -12
-10 -11 7 2 -9 -8 -7 -13
-11 -13 6 1 -10 -9 -8 -14
-11 -14 6 0 -10 -9 -8 -14
-12 -16 5 0 -10 -10 -9 -14
-12 -17 5 -2 -10 -10 -9 -14
-12 -18 5 -2 -10 -10 -9 -14
-13 -19 4 -3 -11 -11 -10 -15
-12 -18 4 -3 -11 -11 -10 -15
-11 -17 4 -3 -11 -11 -10 -15
-10 -16 4 -3 -11 -11 -10 -15
-10 -16 4 -3 -11 -11 -10 -15
-9 -15 4 -4 -11 -12 -9 -16
-9 -15 4 -4 -11 -12 -9 -16
-10 -14 4 -3 -11 -12 -9 -16
-10 -14 4 -3 -11 -12 -9 -16
-10 -14 4 -3 -11 -12 -9 -16
-11 -13 5 -2 -11 -11 -9 -15
-11 -14 6 -2 -10 -11 -9 -15
-12 -15 6 0 -10 -10 -9 -15
-12 -16 7 0 -9 -10 -9 -15
-12 -17 7 0 -9 -10 -9 -15
-13 -18 8 1 -8 -9 -10 -15
-13 -18 8 1 -8 -9 -10 -15
-13 -19 8 1 -8 -10 -10 -15
-13 -19 8 1 -8 -10 -10 -15
-13 -19 8 1 -8 -10 -10 -15
-14 -20 7 0 -8 -11 -9 -14
-14 -19 7 0 -8 -11 -9 -14
-14 -19 7 0 -9 -11 -9 -14
-14 -18 7 0 -9 -11 -9 -14
-14 -18 7 0 -9 -11 -9 -14
-15 -17 6 -2 -10 -12 -10 -15
-15 -17 6 -2 -10 -12 -11 -15
-15 -17 6 -2 -10 -12 -11 -15
-15 -17 6 -2 -10 -12 -12 -15
-15 -17 6 -2 -10 -12 -12 -15
-16 -18 5 -3 -11 -13 -13 -16
-16 -17 5 -3 -11 -13 -13 -16
-15 -17 5 -3 -11 -13 -13 -16
-15 -16 5 -3 -11 -13 -13 -16
-15 -16 5 -3 -11 -13 -13 -16
-14 -15 5 -2 -10 -13 -13 -16
-15 -16 4 -3 -11 -14 -13 -16
-16 -17 4 -4 -11 -14 -13 -16
-17 -18 3 -5 -12 -15 -13 -16
-18 -19 3 -5 -12 -15 -13 -16
-19 -20 2 -6 -13 -16 -14 -16
-18 -20 2 -6 -13 -16 -14 -16
-17 -20 3 -5 -13 -16 -14 -16
-16 -20 3 -5 -13 -16 -14 -16
-16 -20 3 -5 -13 -16 -14 -16
-15 -20 4 -4 -12 -15 -14 -15
-15 -20 4 -5 -12 -15 -14 -15
-16 -20 3 -5 -13 -16 -15 -15
-16 -20 3 -6 -13 -16 -15 -15
-16 -20 3 -6 -13 -16 -15 -15
-17 -21 2 -7 -14 -17 -16 -15
-17 -21 2 -7 -14 -17 -16 -15
-17 -20 2 -7 -14 -17 -16 -15
-17 -20 2 -7 -14 -17 -16 -15
-17 -20 2 -7 -14 -17 -16 -15
-17 -19 2 -8 -15 -17 -17 -15
-17 -18 3 -7 -14 -16 -17 -14
-17 -18 3 -7 -14 -16 -16 -13
-17 -17 4 -6 -13 -15 -16 -12
-17 -17 4 -6 -13 -15 -16 -12
-18 -15 5 -5 -12 -14 -15 -11
-17 -13 6 -4 -12 -13 -14 -11
-16 -12 7 -4 -11 -12 -13 -10
-15 -10 8 -3 -11 -11 -12 -10
-15 -9 9 -3 -11 -11 -11 -10
-13 -8 10 -2 -10 -10 -10 -9
-11 -7 10 0 -9 -10 -10 -8
-10 -6 11 0 -9 -9 -10 -8
-8 -5 11 1 -8 -9 -10 -7
-7 -5 11 1 -8 -9 -10 -7
-6 -4 12 2 -7 -8 -10 -6
-6 -3 12 2 -7 -8 -9 -5
-6 -2 11 2 -7 -7 -8 -5
-6 0 11 2 -7 -7 -7 -4
-6 1 11 2 -7 -7 -6 -4
-6 2 9 2 -6 -6 -5 -3
-5 3 7 1 -6 -6 -5 -3
-5 4 6 0 -7 -6 -5 -2
-4 5 4 -2 -7 -6 -5 -2
-4 5 3 -3 -7 -6 -5 -2
-2 6 2 -4 -8 -6 -4 0
1 5 2 -4 -8 -6 -4 0
3 5 2 -4 -7 -5 -4 0
5 4 2 -4 -7 -5 -4 0
6 4 2 -4 -7 -5 -4 0
6 2 1 -3 -6 -4 -5 -2
4 -2 0 -4 -7 -5 -6 -3
2 -4 0 -5 -8 -6 -7 -4
0 -6 -2 -6 -9 -7 -8 -5
-2 -8 -2 -7 -10 -8 -8 -5
-6 -11 -3 -9 -12 -10 -10 -7
-9 -14 -3 -11 -14 -12 -12 -9
-12 -17 -3 -13 -16 -14 -14 -11
-16 -20 -3 -15 -18 -16 -16 -13
-19 -23 -3 -16 -20 -18 -18 -15
-20 -24 -4 -17 -21 -19 -19 -16
-20 -23 -4 -17 -21 -19 -19 -16
-19 -23 -3 -17 -21 -19 -19 -16
-19 -22 -3 -17 -21 -19 -19 -16
-19 -22 -3 -17 -21 -19 -19 -16
-18 -21 -2 -17 -22 -19 -19 -16
-18 -22 -3 -17 -22 -19 -19 -17
-18 -22 -3 -18 -23 -20 -20 -17
-18 -23 -4 -18 -23 -20 -20 -18
-18 -23 -4 -18 -23 -20 -20 -18
-19 -24 -5 -19 -24 -21 -21 -19
-19 -25 -5 -19 -24 -21 -21 -19
-19 -26 -5 -19 -24 -21 -21 -19
-19 -27 -5 -19 -24 -21 -21 -19
-19 -27 -5 -19 -24 -21 -21 -19
-20 -28 -5 -19 -24 -22 -21 -20
-20 -28 -5 -19 -24 -22 -21 -20
-21 -28 -5 -19 -24 -22 -21 -20
-21 -28 -5 -19 -24 -22 -21 -20
-21 -28 -5 -19 -24 -22 -21 -20
-22 -28 -6 -19 -24 -23 -22 -21
-23 -28 -6 -19 -24 -23 -22 -21
-23 -28 -6 -19 -24 -23 -22 -21
-24 -28 -6 -19 -24 -23 -22 -21
-24 -28 -6 -19 -24 -23 -22 -21
-26 -28 -2 -16 -22 -22 -20 -20
-27 -27 4 -12 -18 -20 -19 -19
-28 -26 9 -9 -15 -18 -17 -19
-29 -25 14 -5 -12 -16 -16 -18
-30 -24 19 -2 -9 -14 -15 -18
-33 -16 32 14 4 -5 -8 -13
-36 -7 47 31 16 6 0 -8
-39 2 62 49 29 16 7 -3
-43 11 76 66 42 25 14 3
-46 19 92 84 55 35 22 8
-33 26 92 94 66 48 31 17
-17 32 89 103 77 61 40 26
0 38 86 112 89 74 50 36
16 45 84 121 100 87 60 47
32 52 80 131 111 100 69 56
56 74 61 125 117 116 88 77
80 101 38 115 123 133 107 100
105 127 17 106 130 150 127 122
130 152 -6 96 135 168 146 145
154 178 -28 87 141 184 165 168
156 156 -49 48 105 149 139 146
152 126 -68 5 62 104 105 117
149 95 -89 -38 18 59 70 89
145 64 -109 -81 -25 14 35 60
142 33 -130 -124 -69 -30 1 30
118 17 -127 -134 -82 -48 -14 16
91 3 -119 -138 -92 -60 -25 3
63 -11 -112 -141 -101 -72 -37 -11
36 -25 -105 -145 -110 -85 -49 -24
9 -39 -98 -149 -119 -97 -60 -37
0 -41 -86 -135 -110 -91 -59 -38
-7 -43 -74 -116 -97 -81 -54 -37
-13 -44 -62 -98 -83 -71 -50 -36
-19 -45 -50 -79 -70 -62 -46 -34
-26 -45 -37 -61 -57 -52 -40 -33
-25 -43 -31 -53 -51 -47 -37 -30
-23 -39 -26 -46 -46 -41 -34 -28
-20 -35 -21 -38 -39 -36 -31 -26
-17 -32 -15 -31 -34 -32 -28 -23
-15 -28 -10 -24 -28 -27 -25 -21
-15 -27 -9 -22 -27 -26 -24 -20
-18 -27 -9 -21 -26 -25 -24 -20
-20 -27 -8 -21 -25 -25 -23 -19
-22 -27 -8 -20 -24 -24 -23 -19
-24 -27 -8 -20 -24 -24 -23 -19
-25 -28 -7 -19 -23 -23 -22 -18
-25 -28 -7 -18 -22 -23 -22 -18
-24 -28 -6 -17 -22 -22 -21 -18
-24 -28 -6 -16 -21 -22 -21 -18
-24 -28 -6 -16 -21 -22 -21 -18
-23 -28 -5 -15 -20 -21 -20 -18
-22 -27 -5 -14 -19 -20 -19 -17
-21 -26 -4 -14 -19 -20 -18 -17
-20 -24 -4 -13 -18 -19 -17 -16
-20 -23 -4 -13 -18 -19 -17 -16
-20 -22 -3 -12 -17 -18 -16 -15
-21 -23 -4 -12 -18 -18 -17 -15
-22 -24 -4 -12 -18 -19 -18 -16
-23 -25 -5 -12 -19 -19 -19 -16
-24 -26 -5 -12 -19 -19 -19 -16
-24 -26 -6 -13 -20 -20 -20 -17
-23 -25 -6 -12 -18 -19 -19 -16
-21 -23 -5 -11 -17 -18 -18 -15
-19 -21 -5 -10 -16 -17 -17 -14
-18 -20 -5 -10 -15 -16 -16 -14
-17 -19 -4 -9 -14 -15 -15 -13
-18 -20 -4 -9 -14 -15 -15 -13
-18 -21 -3 -9 -14 -15 -15 -14
-19 -22 -3 -9 -14 -15 -15 -14
-19 -23 -3 -9 -14 -15 -15 -14
-20 -23 -2 -9 -15 -15 -16 -15
-19 -22 -2 -9 -15 -15 -15 -14
-18 -21 -3 -8 -14 -14 -14 -13
-17 -19 -3 -8 -14 -14 -13 -12
-16 -18 -3 -8 -14 -14 -13 -12
-15 -17 -4 -7 -13 -13 -12 -11
-16 -18 -4 -7 -12 -13 -12 -11
-17 -18 -3 -6 -11 -12 -12 -11
-18 -19 -3 -6 -10 -12 -12 -11
-18 -19 -3 -6 -10 -12 -12 -11
-19 -20 -2 -5 -9 -11 -11 -10
-18 -19 -2 -4 -9 -11 -10 -10
-17 -18 -2 -4 -8 -10 -10 -9
-16 -17 -2 -3 -8 -10 -9 -9
-16 -17 -2 -3 -8 -10 -9 -9
-15 -16 -3 -2 -6 -9 -8 -8
-14 -15 -2 0 -5 -7 -7 -7
-13 -14 -2 1 -3 -6 -6 -6
-12 -13 0 2 0 -5 -5 -5
-12 -13 0 3 1 -4 -4 -4
-11 -12 1 4 2 -3 -3 -3
-11 -12 1 5 3 -2 -2 -2
-11 -11 1 5 4 0 -2 -2
-11 -11 1 6 5 1 0 0
-11 -11 1 6 5 2 0 0
-10 -9 0 7 6 3 1 1
-9 -8 0 8 7 5 2 2
-8 -6 -2 9 8 6 3 3
-7 -4 -2 10 9 7 4 4
-7 -3 -2 11 10 8 5 5
-6 0 -3 12 11 9 7 6
-4 1 -3 13 12 11 8 8
-3 2 -2 13 13 12 9 9
-2 4 -2 14 14 13 11 10
0 5 -2 14 15 14 12 11
2 7 0 15 17 16 14 13
4 9 -2 16 18 17 15 14
6 11 -3 17 19 18 17 15
7 13 -4 18 21 20 19 17
9 15 -4 19 22 21 20 18
11 17 -5 20 23 22 21 19
12 18 -6 20 24 24 22 21
14 20 -6 21 25 25 22 22
16 22 -7 21 26 26 23 23
17 23 -7 21 27 27 23 24
18 24 -8 22 28 28 24 25
19 25 -8 22 29 28 25 26
19 26 -8 22 29 29 26 26
20 27 -8 22 30 29 27 27
20 27 -8 22 30 29 28 27
22 30 -9 22 31 30 30 29
25 32 -9 23 32 32 31 30
27 35 -9 24 33 33 32 31
30 38 -9 25 34 34 34 33
32 42 -9 25 34 35 35 34
33 43 -10 26 35 36 36 35
33 43 -10 26 35 36 36 35
33 42 -10 26 34 36 36 35
33 42 -10 26 34 36 36 35
33 42 -10 26 34 36 36 35
33 39 -10 25 33 35 36 35
33 38 -10 25 33 34 35 34
33 37 -10 25 33 33 35 34
33 35 -10 25 33 32 34 33
33 34 -10 25 33 32 34 33
33 33 -8 24 32 31 33 32
33 34 -7 25 32 31 33 31
33 35 -6 26 32 31 32 31
33 36 -4 27 32 31 32 30
33 37 -3 27 32 31 32 30
32 36 -2 28 33 31 30 28
30 33 0 28 32 30 29 26
27 30 0 28 31 28 28 24
25 27 1 28 30 26 26 22
23 24 1 28 29 25 25 20
20 22 2 27 28 24 24 19
18 19 4 27 27 23 22 18
15 17 5 26 26 22 21 17
12 14 6 26 25 21 20 16
9 12 7 26 24 20 19 16
8 11 8 24 22 18 17 14
6 9 8 23 20 15 15 11
5 8 8 22 17 13 12 9
4 7 8 20 15 10 10 6
3 6 8 19 13 8 8 4
1 4 8 18 12 6 7 3
-2 1 8 17 10 5 5 1
-3 -2 8 16 9 4 4 0
-5 -5 8 15 8 2 3 -2
-7 -7 8 14 7 1 2 -3
-8 -8 8 12 6 0 1 -4
-8 -8 8 11 4 -2 0 -4
-7 -7 8 10 3 -3 -2 -5
-7 -7 8 8 2 -4 -3 -5
-7 -7 8 7 1 -5 -4 -5
-6 -7 8 6 0 -6 -5 -7
-8 -9 7 4 -3 -7 -6 -8
-9 -11 6 3 -4 -8 -7 -9
-10 -13 5 2 -5 -9 -7 -11
-11 -15 4 1 -6 -10 -8 -12
-12 -16 3 0 -7 -11 -9 -13
-12 -16 3 -2 -7 -11 -9 -13
-12 -16 2 -2 -8 -11 -9 -13
-12 -16 2 -3 -8 -11 -9 -13
-12 -16 2 -3 -8 -11 -9 -13
-13 -15 1 -4 -9 -12 -10 -13
-13 -15 1 -4 -9 -12 -10 -13
-12 -14 1 -4 -9 -12 -10 -13
-12 -14 1 -4 -9 -12 -10 -13
-12 -14 1 -4 -9 -12 -10 -13
-11 -13 2 -3 -8 -13 -10 -12
-11 -14 2 -3 -8 -13 -10 -12
-12 -14 2 -3 -8 -13 -10 -12
-12 -15 2 -3 -8 -13 -10 -12
-12 -15 2 -3 -8 -13 -10 -12
-13 -16 2 -3 -9 -13 -11 -13
-13 -16 2 -3 -9 -13 -11 -13
-13 -16 2 -3 -9 -13 -11 -13
-13 -16 2 -3 -9 -13 -11 -13
-13 -16 2 -3 -9 -13 -11 -13
-12 -15 2 -3 -9 -13 -11 -13
-12 -15 2 -3 -9 -13 -11 -13
-11 -15 2 -2 -9 -13 -11 -13
-11 -15 2 -2 -9 -13 -11 -13
-11 -15 2 -2 -9 -13 -11 -13
-10 -14 3 0 -8 -14 -10 -13
-11 -14 3 -2 -9 -14 -11 -14
-11 -15 3 -2 -9 -14 -11 -15
-12 -15 3 -3 -10 -14 -12 -15
-12 -15 3 -3 -10 -14 -12 -16
-13 -16 2 -4 -11 -15 -13 -17
-15 -16 2 -4 -11 -15 -13 -17
-16 -16 2 -4 -11 -15 -13 -16
-17 -16 2 -4 -11 -15 -13 -16
-18 -16 2 -4 -11 -15 -13 -16
-19 -17 1 -3 -10 -15 -13 -15
-18 -17 2 -3 -10 -15 -13 -15
-17 -16 3 -3 -10 -14 -13 -14
-16 -16 3 -3 -10 -14 -13 -14
-15 -16 4 -3 -10 -14 -13 -14
-14 -15 5 -3 -10 -13 -13 -13
-16 -16 4 -4 -11 -14 -13 -14
-17 -17 4 -5 -11 -14 -13 -14
-18 -17 3 -5 -12 -15 -13 -15
-19 -18 3 -6 -12 -15 -13 -15
-20 -19 2 -7 -13 -16 -14 -16
-18 -18 2 -7 -13 -16 -14 -16
-17 -17 2 -7 -13 -16 -14 -16
-15 -16 2 -7 -13 -16 -14 -16
-14 -15 2 -7 -13 -16 -14 -16
-13 -14 3 -6 -13 -16 -13 -15
-14 -14 3 -7 -13 -16 -14 -15
-14 -15 2 -7 -14 -17 -14 -15
-15 -15 2 -8 -14 -17 -15 -15
-15 -15 2 -8 -14 -17 -15 -15
-16 -16 1 -9 -15 -18 -16 -16
-15 -15 1 -9 -15 -18 -16 -15
-14 -15 2 -9 -14 -17 -15 -15
-14 -14 2 -9 -14 -17 -15 -14
-13 -14 2 -9 -14 -17 -15 -14
-12 -13 3 -8 -13 -16 -14 -13
-12 -12 4 -7 -13 -15 -13 -13
-13 -11 5 -6 -12 -15 -12 -12
-13 -10 6 -6 -12 -14 -12 -12
-13 -9 7 -5 -12 -14 -11 -12
-14 -8 8 -4 -11 -13 -10 -11
-14 -8 8 -4 -11 -13 -10 -11
-13 -7 8 -4 -11 -13 -10 -10
-13 -7 8 -4 -11 -13 -10 -10
-13 -7 8 -4 -11 -13 -10 -10
-12 -5 8 -3 -10 -13 -10 -9
-11 -2 10 0 -8 -11 -9 -8
-10 2 11 1 -7 -10 -9 -7
-10 5 12 2 -6 -8 -8 -7
-9 8 13 3 -5 -7 -8 -6
-8 9 13 4 -4 -6 -7 -5
-7 9 11 2 -5 -6 -6 -4
-6 9 9 1 -5 -6 -5 -3
-5 9 6 -2 -6 -6 -5 -3
-4 9 4 -3 -6 -6 -4 -2
-3 8 3 -4 -7 -5 -3 0
0 8 2 -4 -7 -6 -3 0
1 9 2 -3 -7 -6 -3 0
2 9 1 -3 -7 -7 -3 0
3 9 1 -3 -7 -7 -3 0
4 10 0 -2 -6 -8 -3 -2
5 9 0 -2 -6 -8 -3 -2
5 8 -2 -3 -7 -8 -4 -2
6 7 -2 -3 -7 -8 -4 -2
6 6 -2 -3 -7 -8 -4 -2
6 4 -3 -5 -9 -9 -5 -2
5 3 -3 -7 -11 -10 -6 -4
3 1 -3 -8 -13 -12 -7 -5
2 0 -3 -10 -15 -13 -8 -7
0 -3 -3 -12 -17 -15 -9 -8
-4 -5 -4 -13 -18 -16 -11 -10
-7 -8 -4 -14 -19 -17 -12 -11
-11 -11 -4 -15 -20 -18 -14 -13
-14 -14 -4 -16 -21 -19 -15 -14
-17 -17 -4 -17 -22 -20 -17 -16
-19 -18 -5 -18 -23 -21 -18 -17
-19 -18 -5 -18 -23 -21 -18 -17
-19 -18 -5 -18 -23 -21 -18 -17
-19 -18 -5 -18 -23 -21 -18 -17
-19 -18 -5 -18 -23 -21 -18 -17
-19 -19 -5 -18 -23 -21 -19 -17
-19 -20 -5 -18 -23 -21 -19 -17
-19 -21 -5 -18 -23 -21 -20 -17
-19 -22 -5 -18 -23 -21 -20 -17
-19 -23 -5 -18 -23 -21 -20 -17
-19 -24 -4 -19 -24 -22 -21 -16
-19 -24 -4 -19 -24 -22 -21 -16
-19 -24 -5 -19 -24 -22 -20 -16
-19 -24 -5 -19 -24 -22 -20 -16
-19 -24 -5 -19 -24 -22 -20 -16
-20 -24 -6 -18 -24 -22 -19 -17
-20 -23 -6 -18 -24 -22 -19 -17
-19 -21 -5 -18 -24 -22 -19 -17
-18 -20 -4 -18 -24 -22 -19 -17
-18 -18 -4 -18 -24 -22 -19 -17
-17 -17 -3 -19 -24 -21 -18 -16
-17 -18 -3 -19 -24 -21 -18 -16
-18 -19 -3 -19 -24 -21 -19 -17
-19 -20 -3 -19 -24 -21 -20 -17
-19 -21 -3 -19 -24 -21 -20 -17
-21 -20 4 -11 -18 -19 -19 -17
-24 -15 17 2 -9 -13 -14 -14
-27 -10 29 14 0 -7 -10 -11
-30 -6 43 26 9 0 -5 -8
-33 0 55 38 17 6 0 -6
-35 5 64 53 29 16 6 0
-35 11 71 67 42 27 14 7
-34 17 78 81 55 38 22 13
-34 23 87 96 67 50 29 19
-34 29 94 110 80 60 37 25
-18 44 90 117 93 75 51 39
7 61 78 120 104 93 66 57
31 78 66 123 116 109 82 75
56 97 55 127 129 127 99 93
80 114 44 129 140 143 115 111
101 122 20 112 138 146 120 119
120 125 -11 81 126 139 118 120
139 127 -40 52 113 133 116 122
158 129 -71 21 102 126 114 125
178 132 -101 -9 90 118 111 127
170 116 -113 -39 59 91 92 111
144 91 -114 -68 18 50 63 85
118 64 -115 -98 -23 9 33 58
93 37 -115 -128 -64 -32 4 31
67 11 -116 -157 -105 -73 -26 4
48 -5 -112 -161 -119 -89 -39 -11
32 -14 -103 -149 -116 -89 -43 -17
18 -23 -94 -138 -113 -88 -47 -24
3 -31 -86 -126 -109 -88 -51 -30
-13 -40 -76 -113 -106 -88 -54 -37
-19 -44 -66 -100 -97 -81 -54 -38
-20 -43 -56 -87 -83 -71 -49 -35
-22 -40 -46 -72 -70 -61 -44 -31
-23 -38 -35 -59 -57 -52 -38 -27
-24 -36 -25 -46 -44 -41 -33 -24
-25 -35 -20 -37 -37 -36 -30 -21
-24 -33 -18 -33 -34 -33 -28 -19
-23 -31 -16 -30 -31 -31 -26 -17
-23 -30 -14 -26 -28 -28 -24 -15
-22 -28 -11 -22 -25 -26 -22 -12
-21 -27 -10 -20 -23 -24 -21 -11
-20 -26 -9 -20 -23 -24 -21 -11
-19 -25 -7 -20 -22 -23 -21 -10
-19 -24 -6 -20 -22 -23 -21 -9
-18 -23 -5 -20 -22 -23 -21 -9
-17 -22 -4 -19 -21 -22 -20 -8
-17 -22 -4 -18 -21 -22 -20 -8
-17 -22 -4 -17 -20 -21 -20 -8
-17 -22 -4 -17 -19 -21 -20 -8
-17 -22 -4 -16 -19 -21 -20 -8
-18 -22 -3 -15 -18 -20 -19 -8
-18 -22 -3 -15 -18 -20 -19 -8
-18 -22 -3 -15 -18 -20 -19 -9
-18 -22 -3 -15 -18 -20 -19 -9
-18 -22 -3 -15 -18 -20 -19 -9
-18 -23 -4 -16 -18 -20 -19 -10
-19 -23 -4 -16 -18 -20 -19 -10
-21 -23 -4 -16 -18 -20 -19 -10
-22 -23 -4 -16 -18 -20 -19 -10
-23 -23 -4 -16 -18 -20 -19 -10
-23 -23 -3 -15 -17 -19 -20 -10
-21 -21 -3 -14 -16 -19 -18 -10
-19 -19 -3 -13 -15 -18 -17 -10
-17 -17 -3 -13 -15 -18 -15 -10
-15 -14 -3 -12 -14 -18 -14 -10
-14 -13 -3 -11 -13 -17 -13 -10
-15 -13 -3 -11 -13 -17 -13 -10
-16 -14 -3 -11 -13 -17 -14 -11
-17 -14 -3 -11 -13 -17 -14 -11
-18 -14 -3 -11 -13 -17 -14 -11
-19 -15 -4 -11 -12 -16 -15 -12
-19 -15 -4 -11 -12 -16 -15 -12
-18 -15 -4 -10 -11 -15 -14 -11
-17 -15 -4 -10 -11 -15 -14 -11
-17 -15 -4 -10 -11 -15 -14 -11
-16 -14 -3 -9 -10 -14 -13 -10
-15 -12 -3 -8 -8 -13 -12 -10
-14 -10 -2 -6 -7 -11 -10 -9
-13 -9 -2 -5 -5 -10 -9 -8
-12 -7 -2 -4 -4 -9 -8 -8
-11 -6 0 -3 -3 -8 -7 -7
-11 -6 0 -3 -3 -8 -7 -7
-11 -7 -2 -3 -3 -8 -7 -8
-11 -7 -2 -3 -3 -8 -7 -8
-11 -7 -2 -3 -3 -8 -7 -8
-10 -8 -3 -4 -3 -9 -8 -9
-10 -8 -3 -4 -3 -9 -8 -9
-9 -8 -4 -4 -3 -8 -7 -9
-8 -8 -5 -4 -3 -7 -7 -9
-8 -8 -5 -4 -3 -7 -7 -9
-7 -6 -6 -3 0 -5 -5 -9
-7 -5 -4 -2 2 -2 -3 -9
-7 -3 -3 1 5 1 0 -8
-7 0 -2 2 7 4 2 -7
-7 2 1 3 9 6 5 -7
-6 3 2 4 11 8 6 -6
-6 5 2 6 11 8 6 -5
-5 6 2 8 12 9 6 -3
-4 7 2 9 13 10 6 -2
-4 9 2 11 13 10 6 0
-2 11 1 12 14 11 8 2
1 12 1 13 16 13 10 3
3 14 0 14 18 15 12 5
5 16 0 14 19 16 14 7
7 18 0 15 21 18 16 9
8 19 -2 16 22 19 17 10
9 21 -2 17 24 21 19 11
10 22 -3 18 26 23 20 12
11 23 -4 19 27 24 21 13
12 25 -4 20 29 26 23 14
14 26 -5 21 30 27 24 15
16 27 -5 21 30 27 25 16
18 29 -6 21 31 28 26 17
20 30 -7 21 31 29 26 18
22 31 -7 21 31 29 27 19
23 32 -8 22 32 30 28 20
23 32 -8 22 32 31 29 20
23 33 -8 22 33 32 30 20
23 33 -8 22 34 32 31 20
23 33 -8 22 34 33 32 20
23 35 -9 21 35 34 33 21
24 37 -9 22 36 35 34 22
26 39 -8 23 37 36 35 23
27 42 -7 24 37 36 35 24
28 44 -7 25 38 37 36 25
29 45 -6 26 39 38 37 26
29 43 -6 26 39 38 36 26
29 42 -6 26 39 38 35 25
29 40 -6 26 39 38 35 25
29 38 -6 26 39 38 34 25
30 37 -5 26 38 38 33 24
30 37 -5 26 38 37 33 24
30 37 -4 25 37 36 33 23
30 37 -3 25 37 36 33 22
30 37 -3 25 37 35 33 22
30 35 -2 24 36 34 33 20
27 33 -2 24 35 32 31 18
24 30 -2 23 34 30 29 16
21 27 -2 22 33 29 28 14
18 25 -2 22 32 27 26 12
16 23 1 21 31 26 25 11
18 23 3 21 31 25 24 10
19 24 5 22 31 24 23 9
20 24 7 23 31 23 22 8
22 24 9 23 31 22 21 7
22 24 11 24 30 21 20 5
20 22 11 23 28 19 18 3
17 19 12 22 26 17 17 1
14 17 13 22 24 15 16 -2
12 15 13 21 22 13 14 -4
9 12 14 19 21 11 12 -6
7 9 14 17 19 9 10 -8
4 6 13 15 17 7 7 -11
2 4 13 13 16 5 5 -13
0 1 13 11 14 3 3 -15
-3 -2 12 10 13 2 1 -17
-4 -2 12 9 12 0 0 -18
-5 -3 12 8 10 -2 -2 -19
-5 -4 12 8 9 -3 -3 -20
-6 -4 12 7 8 -5 -4 -21
-7 -6 11 5 7 -6 -5 -22
-7 -8 10 3 5 -8 -6 -24
-8 -10 9 1 3 -9 -7 -25
-9 -12 8 -2 1 -10 -7 -26
-9 -14 7 -4 -2 -12 -8 -28
-10 -15 6 -5 -3 -13 -9 -29
-10 -15 6 -5 -3 -13 -10 -29
-11 -15 5 -6 -3 -14 -11 -30
-11 -15 4 -6 -3 -14 -11 -30
-11 -15 4 -6 -3 -14 -12 -30
-12 -16 3 -7 -4 -15 -13 -31
-12 -16 3 -7 -4 -15 -13 -31
-11 -16 3 -7 -4 -15 -13 -31
-11 -16 3 -7 -4 -15 -13 -31
-11 -16 3 -7 -4 -15 -13 -31
-10 -16 4 -7 -4 -14 -12 -32
-11 -17 4 -7 -4 -14 -12 -32
-13 -18 4 -7 -4 -15 -12 -33
-14 -19 4 -7 -4 -15 -12 -33
-15 -20 4 -7 -4 -15 -12 -33
-15 -20 3 -7 -5 -16 -13 -34
-12 -17 4 -7 -5 -16 -12 -34
-9 -14 5 -6 -4 -16 -11 -34
-6 -11 6 -5 -3 -15 -10 -33
-3 -8 7 -5 -3 -15 -9 -33
-2 -6 8 -4 -2 -14 -8 -32
-4 -8 8 -4 -2 -14 -8 -33
-6 -9 7 -4 -2 -14 -9 -34
-9 -11 6 -5 -3 -14 -10 -35
-11 -13 6 -5 -3 -14 -10 -36
-13 -14 5 -6 -4 -15 -11 -37
-12 -14 5 -6 -4 -15 -11 -37
-11 -13 5 -6 -4 -15 -11 -37
-10 -12 5 -6 -4 -15 -11 -37
-9 -12 5 -6 -4 -15 -11 -37
-8 -11 4 -5 -4 -16 -11 -36
-10 -12 4 -5 -4 -16 -11 -36
-11 -12 4 -5 -4 -16 -11 -36
-13 -13 5 -5 -4 -16 -12 -36
-15 -14 5 -5 -4 -16 -12 -36
-16 -15 6 -5 -4 -15 -13 -36
-15 -15 6 -5 -4 -15 -13 -35
-14 -15 6 -5 -4 -15 -13 -35
-13 -15 6 -5 -4 -15 -13 -34
-12 -15 6 -5 -4 -15 -13 -33
-11 -14 6 -5 -3 -16 -12 -32
-12 -14 6 -5 -3 -16 -12 -32
-13 -15 6 -5 -4 -16 -12 -32
-14 -16 5 -6 -5 -16 -12 -32
-15 -16 5 -6 -5 -16 -12 -32
-16 -17 4 -7 -6 -16 -13 -33
-16 -17 4 -7 -6 -16 -13 -33
-16 -17 4 -7 -6 -17 -13 -33
-16 -17 4 -7 -6 -18 -14 -33
-16 -17 4 -7 -6 -18 -14 -33
-16 -17 5 -7 -7 -19 -15 -32
-16 -17 5 -7 -7 -19 -15 -31
-16 -17 5 -7 -7 -19 -15 -31
-16 -17 5 -7 -7 -19 -14 -30
-16 -17 5 -7 -7 -19 -14 -29
-16 -18 5 -7 -8 -19 -13 -28
-16 -18 5 -7 -8 -19 -13 -28
-15 -17 5 -7 -8 -19 -13 -28
-14 -16 5 -8 -8 -19 -13 -28
-14 -16 5 -8 -8 -19 -13 -28
-13 -14 4 -9 -8 -19 -14 -27
-13 -12 6 -8 -7 -17 -12 -25
-12 -10 7 -7 -7 -16 -11 -23
-11 -8 8 -5 -6 -14 -10 -21
-11 -6 10 -4 -5 -12 -8 -19
-10 -4 11 -3 -4 -11 -7 -17
-10 -4 11 -3 -4 -11 -7 -16
-10 -4 11 -3 -4 -11 -7 -16
-9 -4 11 -3 -4 -11 -8 -15
-9 -4 11 -3 -4 -11 -8 -14
-8 -4 12 -2 -3 -11 -9 -13
-8 -2 12 -2 -3 -11 -8 -11
-8 1 12 -2 -3 -10 -7 -9
-8 4 12 -2 -2 -9 -5 -7
-8 6 12 -2 -2 -9 -4 -5
-7 8 11 -2 0 -8 -3 -4
-5 9 10 -2 0 -8 -3 -4
-2 10 9 -2 0 -8 -3 -3
1 12 8 -3 -2 -8 -3 -2
4 13 7 -3 -2 -8 -3 -2
6 14 6 -4 -3 -7 -2 0
6 13 6 -4 -3 -7 -2 0
6 12 6 -4 -3 -7 -2 0
6 10 5 -4 -3 -6 -2 1
6 9 5 -4 -3 -6 -2 1
5 7 4 -3 -2 -5 -2 2
4 5 3 -4 -3 -6 -3 1
3 2 3 -5 -4 -6 -4 1
1 0 2 -6 -6 -7 -5 0
0 -4 1 -7 -7 -8 -6 -2
-3 -6 0 -8 -8 -9 -7 -3
-6 -9 0 -10 -10 -11 -9 -5
-9 -11 0 -11 -12 -13 -11 -7
-12 -13 0 -13 -14 -15 -13 -9
-16 -15 0 -15 -15 -16 -14 -10
-18 -17 -2 -16 -17 -18 -16 -12
-18 -18 -2 -17 -18 -18 -17 -14
-18 -19 -3 -17 -19 -19 -18 -15
-18 -21 -4 -18 -21 -20 -19 -16
-18 -22 -4 -19 -22 -20 -20 -18
-18 -23 -5 -20 -23 -21 -21 -19
-18 -23 -5 -20 -23 -21 -21 -19
-18 -23 -5 -21 -23 -21 -21 -19
-18 -23 -5 -22 -23 -21 -21 -19
-18 -23 -5 -22 -23 -21 -21 -19
-17 -22 -4 -23 -23 -20 -20 -20
-17 -22 -4 -23 -23 -19 -20 -20
-17 -22 -4 -23 -23 -19 -19 -20
-17 -22 -3 -22 -23 -18 -18 -20
-17 -22 -3 -22 -23 -17 -18 -20
-17 -23 -2 -21 -22 -16 -17 -20
-17 -23 -2 -21 -22 -16 -17 -20
-17 -23 -2 -21 -22 -16 -18 -20
-17 -23 -3 -21 -22 -16 -19 -20
-17 -23 -3 -21 -22 -16 -19 -20
-16 -23 -4 -22 -22 -16 -20 -21
-16 -23 -4 -23 -22 -16 -20 -21
-16 -24 -4 -23 -23 -16 -20 -22
-16 -25 -4 -24 -24 -17 -20 -23
-16 -25 -4 -25 -24 -17 -20 -23
-18 -25 -3 -23 -23 -18 -21 -24
-20 -22 4 -15 -18 -15 -19 -23
-23 -18 10 -7 -13 -13 -17 -22
-26 -15 16 2 -8 -10 -15 -20
-29 -11 22 10 -3 -8 -13 -19
-31 -7 32 21 6 -2 -9 -17
-32 0 49 37 18 10 -2 -12
-33 6 64 55 31 21 6 -7
-35 13 80 71 44 32 13 -3
-36 19 96 88 57 44 20 3
-30 28 104 101 70 58 31 12
-12 43 99 109 86 76 46 27
7 57 94 117 101 94 61 43
25 70 89 126 115 112 76 58
45 85 84 135 131 131 92 73
63 100 68 132 140 144 105 90
84 115 35 111 138 152 118 107
103 132 3 91 137 159 131 123
122 148 -30 70 135 168 143 141
143 163 -62 50 133 175 155 158
152 163 -87 20 113 162 150 157
143 135 -98 -22 66 116 117 129
133 107 -109 -63 19 71 84 100
123 79 -121 -105 -28 26 51 71
114 52 -133 -147 -76 -20 17 43
100 29 -137 -171 -106 -51 -8 20
76 15 -128 -165 -110 -58 -19 7
54 1 -118 -160 -113 -66 -29 -8
31 -14 -110 -155 -117 -74 -40 -22
8 -28 -101 -150 -120 -82 -52 -35
-8 -37 -90 -140 -118 -83 -57 -45
-10 -37 -76 -121 -103 -73 -52 -43
-13 -37 -63 -103 -89 -62 -47 -40
-15 -37 -50 -85 -73 -52 -41 -38
-18 -37 -36 -66 -58 -40 -36 -36
-20 -36 -26 -53 -48 -32 -32 -34
-19 -34 -22 -48 -44 -29 -30 -32
-18 -32 -17 -43 -39 -26 -28 -31
-16 -30 -13 -37 -36 -23 -26 -29
-15 -29 -9 -32 -32 -20 -25 -27
-14 -27 -6 -28 -29 -18 -23 -26
-15 -26 -6 -28 -29 -18 -22 -25
-16 -26 -6 -28 -29 -18 -22 -24
-17 -25 -6 -27 -28 -18 -21 -23
-18 -24 -6 -27 -28 -18 -20 -22
-19 -23 -5 -26 -27 -17 -19 -21
-20 -24 -5 -26 -27 -17 -19 -21
-20 -25 -4 -25 -27 -17 -19 -21
-21 -26 -3 -24 -27 -16 -19 -21
-22 -27 -3 -24 -27 -16 -19 -21
-23 -28 -2 -23 -26 -15 -20 -21
-22 -27 -2 -23 -25 -15 -20 -21
-21 -26 -2 -23 -24 -14 -20 -21
-19 -24 -2 -23 -23 -13 -19 -20
-18 -23 -2 -23 -22 -13 -19 -20
-17 -22 -2 -22 -21 -12 -18 -19
-17 -22 -2 -22 -21 -12 -18 -18
-16 -22 0 -21 -21 -12 -18 -18
-15 -22 1 -20 -22 -12 -18 -17
-15 -22 1 -20 -22 -12 -18 -16
-14 -22 2 -19 -23 -11 -17 -15
-14 -22 2 -19 -23 -11 -17 -15
-15 -22 2 -19 -22 -10 -17 -15
-16 -21 2 -19 -21 -9 -16 -14
-16 -21 2 -19 -21 -9 -16 -14
-17 -20 1 -18 -20 -8 -15 -13
-17 -20 2 -17 -19 -8 -15 -13
-17 -20 3 -16 -18 -8 -15 -13
-16 -19 5 -15 -17 -8 -15 -13
-16 -19 6 -14 -16 -8 -15 -13
-15 -18 7 -13 -15 -7 -15 -13
-15 -18 6 -13 -15 -7 -14 -12
-15 -18 5 -14 -15 -6 -14 -12
-15 -18 3 -15 -15 -5 -13 -11
-15 -18 2 -15 -15 -5 -12 -10
-14 -18 1 -16 -14 -4 -11 -9
-13 -16 1 -15 -14 -4 -11 -9
-13 -15 2 -14 -14 -4 -10 -8
-12 -13 3 -13 -14 -3 -9 -7
-11 -12 3 -12 -14 -3 -9 -7
-10 -10 4 -11 -13 -2 -8 -6
-10 -10 4 -11 -11 0 -7 -5
-10 -10 4 -11 -10 1 -6 -5
-10 -10 4 -10 -8 2 -5 -4
-10 -10 4 -10 -7 3 -4 -3
-9 -11 5 -9 -5 4 -3 -2
-9 -10 5 -8 -5 4 -3 -2
-9 -9 5 -8 -5 4 -3 -2
-9 -7 5 -7 -4 5 -3 -2
-9 -6 5 -6 -4 5 -3 -2
-8 -5 6 -5 -3 6 -2 0
-8 -5 6 -4 -3 7 0 0
-8 -4 6 -4 -2 9 0 1
-8 -3 6 -3 0 10 1 2
-8 -3 6 -2 0 12 2 2
-7 -2 5 0 1 13 3 3
-6 1 5 2 3 15 5 4
-6 4 5 3 6 16 7 5
-5 6 5 5 8 18 9 7
-4 8 5 6 10 19 10 8
-3 10 5 8 12 21 12 9
0 11 5 8 13 22 13 11
1 12 5 9 15 23 14 12
3 13 5 9 16 24 15 14
4 15 5 10 18 26 16 15
6 16 4 11 19 27 17 17
8 17 4 12 20 28 18 18
9 19 4 14 22 30 20 19
11 20 4 15 23 31 21 20
12 22 4 17 25 33 23 22
14 23 5 18 26 34 24 23
14 24 4 18 27 36 26 25
15 24 4 19 28 37 27 27
15 25 3 19 29 39 29 28
16 26 2 20 31 40 30 30
17 27 1 21 32 43 32 32
18 29 1 21 33 44 32 32
19 31 2 22 34 44 33 32
20 33 2 22 35 45 33 32
22 35 3 23 36 46 34 32
23 37 4 24 37 47 35 33
23 37 4 24 37 47 36 34
23 37 4 24 37 47 37 34
23 37 3 24 38 48 38 35
23 37 3 24 38 48 39 36
22 38 2 24 39 49 40 37
23 38 2 24 38 49 40 37
24 38 2 23 38 49 40 37
25 38 2 23 37 48 40 37
26 38 2 22 36 48 40 37
27 37 3 21 35 47 39 37
27 38 4 21 36 47 39 37
27 39 5 22 36 47 39 38
27 40 6 22 37 47 39 38
27 43 7 23 38 47 39 39
26 44 8 24 39 48 40 40
25 40 9 24 38 46 38 37
25 37 10 24 36 44 36 35
24 34 11 23 35 43 34 32
23 31 12 23 33 40 32 29
22 28 13 22 32 38 30 27
20 27 13 22 32 36 28 26
19 27 13 22 32 34 27 26
17 26 14 22 31 33 25 25
16 25 14 22 31 31 24 24
14 23 15 21 30 29 22 23
12 19 16 20 27 26 20 20
10 15 16 18 25 24 18 18
9 11 17 17 22 22 16 15
7 7 18 15 19 19 14 12
5 4 19 14 17 17 12 10
3 4 19 13 15 15 11 8
1 4 19 11 14 13 10 7
-2 3 19 10 12 12 9 5
-4 3 19 8 11 10 7 4
-6 2 19 7 9 8 6 2
-6 1 19 6 7 6 4 1
-5 1 19 4 6 5 3 1
-5 0 18 3 4 3 1 0
-4 -2 18 1 3 2 0 -2
-3 -3 17 0 1 0 -3 -3
-4 -5 16 -2 1 -2 -3 -4
-5 -6 15 -4 0 -3 -3 -4
-6 -8 14 -5 0 -4 -4 -5
-7 -9 12 -6 -2 -5 -4 -6
-8 -11 11 -8 -3 -6 -5 -7
-10 -13 10 -9 -5 -7 -6 -8
-11 -15 9 -10 -7 -8 -7 -9
-13 -16 8 -11 -8 -9 -8 -10
-14 -18 7 -13 -10 -11 -9 -11
-16 -20 6 -14 -12 -12 -10 -12
-15 -18 6 -14 -12 -12 -9 -11
-14 -16 6 -14 -11 -11 -8 -9
-13 -15 6 -14 -11 -11 -7 -8
-11 -13 6 -14 -10 -10 -6 -7
-10 -11 7 -13 -9 -9 -5 -5
-10 -12 7 -13 -9 -9 -6 -5
-10 -12 7 -13 -9 -9 -6 -5
-10 -13 7 -13 -9 -9 -7 -6
-10 -14 7 -13 -9 -9 -8 -6
-11 -15 6 -12 -10 -10 -9 -7
-11 -15 6 -12 -10 -10 -9 -7
-11 -15 6 -12 -10 -10 -9 -7
-11 -15 6 -12 -10 -10 -9 -8
-11 -15 6 -12 -10 -10 -9 -8
-11 -14 7 -13 -11 -10 -9 -9
-11 -14 7 -13 -11 -10 -9 -9
-11 -14 7 -13 -11 -10 -9 -9
-11 -14 8 -13 -11 -10 -9 -9
-11 -14 8 -13 -11 -10 -9 -9
-10 -14 9 -12 -10 -10 -9 -8
-11 -15 9 -12 -10 -10 -9 -8
-12 -16 8 -12 -10 -10 -9 -8
-13 -17 8 -12 -9 -10 -9 -8
-14 -18 7 -12 -9 -10 -9 -8
-15 -19 6 -11 -8 -9 -9 -9
-13 -17 6 -11 -8 -9 -9 -9
-11 -15 6 -11 -8 -9 -9 -9
-9 -14 7 -11 -8 -9 -9 -9
-7 -12 7 -11 -8 -9 -9 -9
-5 -10 8 -11 -9 -10 -10 -8
-6 -10 8 -11 -9 -10 -10 -8
-7 -10 8 -11 -9 -10 -10 -8
-8 -11 8 -10 -9 -10 -9 -8
-10 -11 8 -10 -9 -10 -9 -8
-11 -12 9 -9 -8 -10 -8 -9
-13 -13 9 -9 -8 -10 -9 -9
-15 -14 9 -10 -9 -10 -10 -10
-16 -15 8 -10 -9 -11 -11 -10
-18 -17 8 -11 -10 -11 -12 -11
-20 -18 7 -12 -11 -12 -13 -12
-19 -18 7 -12 -11 -12 -13 -12
-18 -17 7 -12 -11 -12 -12 -12
-17 -17 7 -12 -11 -12 -12 -11
-16 -16 7 -12 -11 -12 -11 -11
-15 -15 7 -11 -10 -11 -10 -10
-15 -15 7 -11 -10 -11 -10 -10
-15 -15 7 -11 -10 -12 -10 -10
-15 -15 7 -11 -10 -12 -10 -11
-15 -15 7 -11 -10 -13 -10 -11
-15 -15 6 -12 -11 -14 -11 -12
-15 -13 6 -12 -11 -14 -11 -12
-14 -11 7 -11 -10 -13 -11 -11
-14 -9 8 -10 -10 -13 -10 -11
-13 -7 9 -9 -9 -12 -10 -10
-12 -5 10 -8 -8 -11 -9 -9
-12 -5 11 -7 -7 -10 -9 -9
-11 -4 12 -6 -6 -9 -8 -8
-11 -4 13 -5 -5 -8 -7 -7
-10 -3 15 -3 -4 -7 -6 -6
-9 -2 16 -2 -3 -6 -5 -5
-9 0 16 -2 -3 -6 -5 -5
-9 2 16 -2 -3 -6 -4 -5
-8 3 16 -2 -2 -6 -4 -4
-8 4 16 -2 -2 -6 -3 -4
-7 6 15 0 0 -5 -2 -3
-7 6 13 0 0 -5 -2 -3
-7 6 11 -2 -2 -5 -2 -3
-7 6 10 -3 -2 -5 -2 -2
-7 6 8 -4 -3 -5 -2 -2
-8 7 6 -5 -4 -5 -2 0
-5 9 6 -5 -4 -5 0 1
-2 11 6 -4 -3 -4 1 2
2 14 6 -3 -2 -4 2 3
5 16 6 -2 0 -3 4 5
8 18 7 0 1 -2 5 6
8 15 6 0 1 -3 4 5
7 12 5 -2 0 -4 2 3
7 9 4 -2 0 -5 0 1
6 6 3 -3 -2 -6 -2 0
5 3 2 -4 -3 -7 -4 -3
3 2 2 -6 -5 -8 -5 -4
2 0 1 -8 -7 -10 -6 -5
0 -3 0 -10 -10 -12 -7 -6
-3 -4 -2 -12 -12 -13 -8 -7
-5 -6 -3 -14 -14 -15 -9 -8
-6 -8 -3 -14 -14 -16 -10 -9
-8 -10 -3 -14 -15 -17 -12 -11
-10 -12 -3 -15 -15 -18 -13 -12
-11 -14 -3 -15 -16 -19 -14 -13
-13 -16 -2 -16 -17 -20 -16 -15
-13 -16 -2 -16 -17 -20 -16 -15
-14 -17 -3 -16 -18 -20 -17 -16
-15 -18 -3 -17 -18 -21 -17 -17
-16 -19 -4 -17 -19 -21 -18 -18
-17 -20 -5 -18 -20 -22 -19 -19
-17 -20 -5 -18 -20 -22 -19 -19
-17 -20 -5 -18 -20 -22 -19 -19
-16 -20 -5 -18 -20 -22 -19 -19
-16 -20 -5 -18 -20 -22 -19 -19
-15 -20 -5 -18 -20 -23 -19 -19
-15 -21 -5 -18 -20 -23 -19 -19
-16 -22 -5 -18 -20 -23 -19 -19
-17 -23 -5 -18 -20 -23 -20 -20
-18 -25 -5 -18 -20 -23 -20 -20
-19 -26 -5 -18 -21 -24 -21 -21
-19 -26 -5 -18 -21 -24 -21 -21
-18 -26 -5 -18 -21 -24 -21 -21
-18 -25 -5 -18 -21 -24 -21 -21
-17 -25 -5 -18 -21 -24 -21 -21
-16 -24 -4 -17 -20 -24 -21 -22
-16 -24 -4 -17 -20 -24 -21 -22
-16 -23 -4 -17 -20 -23 -20 -21
-17 -22 -4 -16 -20 -23 -19 -21
-17 -21 -4 -16 -20 -22 -18 -20
-18 -20 0 -13 -18 -21 -17 -19
-22 -16 13 -2 -10 -16 -14 -19
-26 -11 27 11 -2 -11 -11 -19
-30 -7 40 23 8 -6 -8 -18
-34 -3 55 35 16 0 -5 -18
-38 3 67 48 25 6 0 -16
-34 9 75 64 38 17 8 -9
-29 15 84 79 53 29 16 0
-25 21 93 95 66 42 23 7
-21 27 101 111 80 54 31 14
-14 36 106 125 94 67 42 24
9 57 93 129 109 89 62 46
31 77 78 132 123 109 81 67
54 97 65 135 139 130 102 89
76 117 52 139 153 151 121 109
97 135 34 137 164 168 139 128
114 138 2 105 152 161 137 131
131 141 -31 74 140 154 136 134
147 144 -63 43 127 148 134 138
163 147 -96 11 114 141 132 141
174 146 -123 -21 96 128 125 140
149 116 -127 -55 49 81 92 110
123 87 -130 -89 3 36 58 80
99 57 -134 -122 -45 -10 25 52
73 27 -137 -156 -92 -55 -9 22
50 1 -138 -183 -130 -94 -36 -4
36 -9 -124 -166 -120 -91 -39 -11
23 -17 -111 -149 -111 -87 -43 -18
10 -26 -98 -133 -103 -83 -46 -25
-4 -34 -85 -116 -94 -79 -49 -32
-15 -43 -71 -100 -85 -75 -52 -38
-15 -40 -59 -86 -73 -66 -46 -34
-16 -37 -48 -71 -62 -57 -40 -31
-17 -35 -35 -57 -51 -49 -34 -27
-18 -33 -24 -41 -40 -39 -29 -24
-19 -30 -14 -29 -30 -31 -24 -20
-19 -28 -12 -26 -28 -29 -23 -20
-18 -26 -11 -24 -26 -28 -22 -19
-17 -24 -9 -21 -24 -26 -21 -19
-16 -21 -7 -19 -21 -24 -20 -18
-15 -19 -5 -16 -19 -22 -18 -17
-15 -21 -5 -16 -19 -22 -19 -17
-16 -22 -5 -16 -19 -23 -20 -17
-16 -24 -5 -16 -19 -23 -21 -17
-17 -26 -5 -16 -19 -24 -22 -17
-18 -28 -5 -17 -20 -25 -23 -18
-18 -27 -5 -16 -20 -25 -23 -18
-18 -26 -5 -15 -20 -24 -23 -18
-18 -25 -4 -14 -19 -23 -22 -18
-18 -24 -4 -13 -19 -22 -22 -18
-17 -23 -3 -12 -18 -21 -21 -18
-17 -23 -3 -12 -18 -21 -21 -18
-16 -23 -3 -11 -18 -21 -20 -17
-16 -22 -2 -11 -17 -21 -19 -17
-15 -22 -2 -10 -17 -21 -18 -16
-14 -21 0 -9 -16 -20 -17 -15
-14 -21 0 -9 -16 -20 -17 -15
-14 -21 0 -9 -16 -20 -17 -15
-15 -21 0 -8 -16 -19 -17 -15
-15 -21 0 -8 -16 -19 -17 -15
-16 -20 1 -7 -15 -18 -17 -15
-16 -20 1 -7 -15 -18 -17 -15
-15 -19 1 -6 -14 -17 -16 -14
-15 -19 1 -5 -14 -17 -16 -13
-14 -18 1 -4 -13 -16 -15 -12
-13 -17 2 -3 -12 -15 -14 -11
-13 -17 2 -3 -12 -15 -14 -11
-13 -17 2 -3 -11 -15 -14 -11
-13 -16 2 -3 -11 -15 -14 -10
-13 -16 2 -3 -10 -15 -14 -10
-13 -15 3 -2 -9 -14 -15 -9
-13 -15 3 -2 -9 -14 -15 -9
-13 -15 3 -2 -9 -14 -15 -9
-13 -15 3 0 -9 -13 -15 -9
-13 -15 3 0 -9 -13 -15 -9
-14 -14 3 1 -8 -12 -14 -8
-13 -13 3 2 -7 -11 -13 -8
-12 -12 4 3 -6 -10 -12 -7
-11 -11 4 5 -5 -9 -11 -6
-10 -10 5 6 -4 -8 -10 -5
-9 -8 6 8 -2 -6 -8 -4
-9 -8 6 8 -2 -6 -8 -4
-9 -8 5 8 -2 -6 -8 -4
-9 -8 5 8 -2 -6 -8 -4
-9 -8 4 8 -2 -6 -8 -4
-8 -9 3 7 -2 -7 -7 -4
-8 -9 3 8 0 -6 -6 -4
-9 -9 3 9 1 -4 -5 -3
-9 -9 3 11 2 -3 -4 -2
-10 -9 3 12 3 0 -3 0
-11 -10 4 14 5 2 -2 1
-9 -8 4 14 6 3 0 2
-8 -6 4 14 7 4 1 3
-6 -4 4 15 8 5 2 4
-4 0 4 15 9 6 3 5
-2 2 5 16 10 8 4 7
-2 3 5 17 11 9 4 8
-2 4 5 18 12 10 5 9
-2 5 5 20 14 11 6 10
-2 6 5 21 15 12 7 11
0 7 5 23 17 13 8 13
3 10 5 24 19 15 10 14
6 13 5 26 21 18 12 16
9 16 6 28 23 21 14 18
13 19 6 30 25 23 17 20
16 22 7 32 27 26 19 22
16 22 6 32 27 26 19 23
16 23 5 33 28 27 20 24
17 23 4 33 29 28 21 25
17 24 3 34 30 29 22 26
18 25 2 35 31 30 23 28
19 26 2 35 31 31 24 28
21 28 2 35 32 32 25 29
23 29 2 36 33 33 27 30
25 31 2 36 34 34 28 31
27 33 1 37 35 35 30 32
27 34 1 37 35 36 30 32
27 35 1 38 36 37 31 33
27 36 1 39 37 38 32 34
27 37 1 40 38 39 33 35
28 39 2 42 39 40 34 36
28 39 2 42 39 40 34 36
29 39 2 42 39 40 35 37
29 38 2 42 39 40 35 37
30 38 2 42 39 40 36 38
31 37 1 40 39 42 37 39
31 37 1 40 39 42 37 39
31 38 2 42 40 42 37 39
30 39 2 43 40 43 37 39
30 40 3 44 42 43 37 39
29 42 4 45 43 44 38 40
29 39 4 44 42 43 38 39
29 37 4 43 40 40 37 37
29 34 4 42 38 39 36 36
29 32 4 40 37 37 35 34
28 29 4 39 35 35 34 32
27 29 5 39 35 35 33 32
26 29 7 40 35 35 32 31
25 29 8 42 35 34 31 31
24 29 10 43 35 34 30 30
23 28 12 44 34 33 28 29
22 26 12 43 33 31 27 27
21 24 12 42 31 29 26 25
19 22 13 40 29 26 25 22
18 20 13 39 27 24 24 20
16 18 14 37 25 21 22 17
14 16 15 37 25 20 20 16
11 14 16 37 24 19 18 15
9 11 17 36 23 18 16 14
6 9 18 36 22 17 14 13
3 6 19 35 21 16 12 12
3 6 19 33 19 14 10 11
3 5 18 31 17 12 8 9
3 4 17 29 14 9 5 7
3 3 16 27 12 7 3 5
4 2 15 24 9 4 0 3
2 1 15 23 8 4 0 3
0 -2 15 22 7 3 0 2
-3 -3 15 21 6 2 0 2
-5 -5 15 20 5 1 0 1
-7 -7 14 19 4 0 -2 0
-7 -8 14 18 3 -2 -3 0
-7 -9 13 16 2 -3 -4 -2
-6 -10 12 15 0 -4 -5 -3
-6 -11 11 13 -2 -5 -6 -4
-5 -12 10 11 -4 -7 -7 -5
-6 -12 10 11 -4 -7 -7 -5
-7 -12 9 10 -4 -7 -7 -5
-8 -13 9 9 -5 -8 -8 -6
-9 -13 8 8 -5 -8 -8 -6
-11 -14 7 7 -6 -9 -9 -7
-11 -14 7 7 -6 -9 -9 -7
-11 -14 7 7 -6 -10 -9 -7
-11 -14 6 7 -7 -10 -9 -8
-11 -14 6 7 -7 -11 -9 -8
-11 -14 5 6 -8 -12 -10 -9
-12 -15 5 6 -8 -12 -10 -9
-13 -16 5 6 -8 -12 -10 -9
-14 -17 5 6 -8 -12 -10 -9
-15 -18 5 6 -8 -12 -10 -9
-16 -20 6 7 -9 -11 -11 -9
-16 -20 6 7 -9 -11 -11 -9
-16 -20 6 7 -9 -11 -11 -9
-15 -20 6 7 -9 -11 -11 -9
-15 -20 6 7 -9 -11 -11 -9
-14 -21 6 7 -8 -11 -11 -9
-14 -19 6 7 -8 -11 -11 -9
-14 -17 6 7 -8 -11 -11 -9
-13 -14 6 8 -7 -11 -11 -9
-13 -12 6 8 -7 -11 -11 -9
-12 -9 6 9 -6 -10 -11 -10
-12 -10 6 9 -6 -10 -11 -10
-12 -11 6 9 -6 -10 -11 -10
-13 -12 6 8 -7 -10 -11 -10
-13 -13 6 8 -7 -10 -11 -10
-14 -15 6 7 -8 -9 -11 -10
-14 -15 6 7 -8 -9 -11 -10
-13 -14 6 7 -8 -9 -11 -10
-12 -13 6 8 -7 -9 -11 -10
-11 -12 6 8 -7 -9 -11 -10
-10 -11 7 9 -6 -10 -10 -9
-10 -12 7 9 -6 -10 -10 -9
-11 -13 7 9 -6 -10 -10 -9
-11 -14 7 9 -6 -10 -10 -9
-12 -15 7 9 -6 -10 -10 -9
-13 -16 8 9 -7 -10 -11 -10
-13 -16 8 9 -7 -10 -11 -10
-14 -17 8 8 -7 -11 -12 -10
-14 -17 7 8 -8 -11 -13 -11
-15 -18 7 7 -8 -12 -14 -11
-16 -19 6 6 -9 -13 -15 -12
-16 -19 6 6 -9 -13 -15 -12
-15 -18 6 6 -9 -13 -14 -12
-15 -17 6 5 -9 -13 -14 -11
-14 -16 6 5 -9 -13 -13 -11
-13 -15 7 4 -9 -13 -12 -10
-13 -15 7 4 -9 -13 -12 -10
-13 -14 7 4 -9 -13 -12 -11
-14 -14 7 4 -9 -12 -12 -11
-14 -13 7 4 -9 -12 -12 -12
-15 -12 6 3 -8 -11 -13 -13
-15 -12 6 3 -8 -11 -13 -13
-15 -12 6 3 -8 -11 -13 -13
-15 -13 6 3 -9 -12 -13 -13
-15 -13 6 3 -9 -12 -13 -13
-15 -14 7 2 -10 -13 -13 -13
-15 -12 7 2 -10 -13 -13 -12
-14 -10 8 3 -9 -12 -12 -11
-14 -8 9 4 -9 -12 -12 -10
-13 -6 10 5 -8 -11 -11 -9
-12 -3 11 6 -7 -10 -10 -7
-12 -3 11 6 -7 -10 -9 -7
-11 -2 12 7 -6 -9 -8 -7
-10 0 12 7 -5 -8 -7 -6
-9 1 13 8 -4 -7 -7 -6
-9 1 13 8 -4 -7 -6 -6
-8 4 14 9 -3 -6 -4 -4
-7 6 14 9 -2 -5 -3 -3
-7 8 13 9 -2 -4 -2 -2
-6 10 13 9 0 -3 0 0
-6 12 13 9 0 -3 1 1
-4 13 11 7 1 -2 2 2
-3 12 10 6 0 -3 1 2
-2 12 9 4 -2 -3 1 1
0 11 8 3 -3 -4 0 1
1 11 7 2 -4 -4 0 1
2 9 6 1 -5 -5 -2 0
3 7 5 1 -5 -5 -2 0
4 5 4 1 -4 -5 -2 0
5 3 3 1 -4 -5 -2 0
5 2 2 1 -4 -5 -2 0
5 0 0 -2 -4 -4 -4 -2
4 -2 -2 -4 -6 -5 -5 -3
3 -3 -3 -6 -8 -6 -7 -4
2 -4 -4 -8 -10 -7 -8 -5
1 -5 -5 -10 -12 -8 -9 -6
-3 -7 -5 -11 -13 -9 -10 -7
-6 -8 -4 -11 -13 -10 -10 -8
-9 -10 -3 -11 -14 -11 -11 -9
-12 -11 -2 -11 -14 -12 -11 -10
-14 -12 0 -11 -14 -13 -11 -11
-15 -15 1 -12 -16 -15 -13 -13
-16 -17 0 -14 -17 -16 -15 -15
-17 -20 -2 -15 -19 -18 -17 -17
-18 -22 -3 -17 -20 -19 -19 -19
-18 -24 -3 -18 -21 -20 -20 -20
-19 -25 -4 -19 -22 -21 -21 -21
-19 -25 -4 -19 -22 -21 -20 -21
-19 -25 -4 -19 -22 -21 -20 -20
-19 -25 -4 -19 -22 -21 -19 -20
-19 -25 -4 -19 -22 -21 -19 -20
-19 -24 -5 -18 -22 -21 -18 -19
-19 -24 -5 -18 -22 -21 -18 -18
-19 -24 -5 -18 -22 -21 -18 -17
-19 -24 -5 -18 -22 -21 -18 -16
-19 -24 -5 -18 -22 -21 -18 -16
-19 -24 -5 -18 -21 -21 -19 -15
-19 -24 -5 -18 -21 -21 -19 -15
-20 -24 -5 -18 -21 -21 -19 -15
-20 -24 -5 -18 -21 -21 -19 -15
-20 -24 -5 -18 -21 -21 -19 -15
-21 -25 -4 -18 -22 -21 -19 -16
-20 -24 -4 -17 -21 -21 -19 -16
-19 -24 -4 -17 -21 -20 -19 -16
-18 -23 -4 -16 -20 -20 -19 -16
-17 -23 -4 -16 -20 -20 -19 -16
-21 -22 2 -10 -16 -17 -18 -15
-26 -22 9 -3 -12 -14 -17 -14
-31 -21 16 4 -8 -12 -16 -14
-37 -21 22 10 -4 -9 -15 -13
-43 -21 29 16 1 -7 -14 -13
-43 -11 44 32 14 5 -5 -7
-41 0 58 50 28 16 4 1
-39 9 72 67 43 26 12 7
-38 19 87 84 56 37 21 13
-37 29 101 101 70 49 29 19
-20 39 96 108 82 63 42 31
-2 51 89 115 95 78 54 45
16 61 81 122 106 94 66 58
34 72 75 130 118 108 78 70
53 82 68 137 131 123 91 84
76 99 43 126 131 131 101 98
101 115 15 111 130 137 111 113
126 133 -12 97 128 143 122 128
150 149 -39 84 127 150 133 142
175 167 -66 69 126 156 143 157
162 140 -81 25 81 116 113 132
147 109 -96 -20 36 72 80 103
132 78 -111 -66 -10 27 48 74
116 49 -126 -112 -56 -17 15 45
100 18 -141 -158 -102 -61 -19 16
80 6 -133 -156 -106 -68 -27 5
61 -5 -122 -150 -108 -74 -34 -6
40 -16 -112 -144 -109 -79 -43 -16
20 -27 -101 -138 -111 -85 -50 -26
1 -38 -91 -132 -112 -90 -57 -36
-5 -39 -78 -115 -101 -81 -54 -35
-9 -39 -66 -98 -87 -71 -48 -33
-13 -39 -54 -80 -73 -61 -43 -30
-17 -39 -41 -63 -59 -51 -37 -28
-21 -39 -28 -47 -45 -40 -32 -26
-22 -38 -25 -40 -40 -37 -30 -25
-22 -37 -21 -35 -36 -34 -28 -24
-23 -36 -18 -30 -32 -31 -27 -23
-23 -35 -15 -26 -29 -28 -25 -22
-23 -35 -12 -21 -25 -25 -24 -21
-24 -32 -10 -19 -23 -23 -22 -19
-23 -29 -9 -18 -21 -22 -20 -18
-22 -26 -7 -17 -20 -20 -19 -17
-21 -23 -6 -16 -18 -19 -17 -16
-20 -20 -5 -15 -17 -18 -16 -15
-19 -19 -4 -14 -16 -17 -15 -14
-19 -20 -4 -14 -16 -17 -16 -14
-19 -21 -4 -14 -17 -18 -16 -15
-19 -22 -4 -14 -17 -18 -17 -15
-19 -22 -4 -14 -17 -18 -17 -15
-19 -23 -4 -14 -18 -19 -18 -16
-19 -22 -4 -13 -18 -19 -18 -16
-19 -22 -4 -13 -18 -18 -17 -15
-19 -21 -4 -12 -18 -18 -17 -15
-19 -21 -4 -12 -18 -18 -17 -15
-18 -21 -4 -11 -17 -17 -16 -14
-19 -23 -4 -11 -17 -17 -16 -15
-20 -24 -4 -11 -17 -18 -17 -15
-21 -26 -4 -11 -17 -18 -17 -16
-21 -27 -4 -11 -17 -18 -17 -16
-21 -26 -3 -10 -18 -19 -18 -17
-20 -24 -3 -9 -17 -18 -17 -16
-19 -22 -3 -9 -16 -17 -16 -16
-18 -20 -3 -8 -15 -16 -15 -15
-17 -18 -3 -8 -14 -15 -14 -15
-16 -17 -2 -7 -13 -14 -13 -14
-17 -18 -2 -7 -13 -14 -13 -14
-17 -19 -2 -7 -13 -14 -13 -14
-18 -20 -2 -7 -13 -14 -13 -14
-18 -20 -2 -7 -13 -14 -13 -14
-19 -21 -3 -8 -14 -14 -14 -13
-19 -21 -3 -8 -14 -14 -14 -13
-19 -21 -3 -7 -13 -14 -14 -13
-19 -21 -3 -7 -13 -14 -14 -13
-19 -21 -3 -7 -13 -14 -14 -13
-19 -20 -2 -5 -11 -12 -12 -12
-17 -18 0 -3 -9 -10 -10 -11
-15 -16 1 -2 -7 -9 -9 -10
-13 -13 2 1 -5 -7 -7 -9
-11 -11 2 2 -4 -6 -6 -8
-10 -10 3 3 -3 -5 -5 -7
-11 -10 2 3 -3 -5 -5 -7
-11 -11 1 3 -3 -5 -5 -7
-12 -11 0 3 -3 -5 -5 -7
-12 -11 0 3 -3 -5 -5 -7
-13 -12 -2 3 -2 -4 -3 -6
-12 -11 0 5 0 -2 -2 -5
-11 -11 1 7 2 0 0 -4
-10 -10 2 8 3 2 1 -3
-10 -10 3 10 4 3 2 -2
-8 -8 4 11 5 4 3 0
-7 -6 3 11 6 5 4 1
-6 -4 3 11 7 5 5 2
-5 -2 2 11 8 6 6 3
-4 1 2 11 8 6 6 4
-3 2 1 12 9 8 7 5
-3 3 1 13 9 9 7 5
-2 3 0 14 10 10 7 5
-2 4 0 15 10 11 7 5
-2 4 0 15 10 12 7 5
0 6 -2 16 12 14 9 7
1 7 -2 16 14 15 11 8
2 8 -2 17 16 17 12 10
3 9 -2 17 17 18 14 11
4 10 -2 17 19 19 15 12
6 12 -2 18 20 20 16 13
7 13 -3 19 20 21 17 14
9 15 -3 20 21 22 18 15
10 16 -4 21 21 23 19 16
11 17 -4 22 21 24 20 17
13 19 -5 23 23 26 22 19
14 22 -5 24 25 28 24 21
16 24 -5 25 27 30 26 23
18 26 -5 26 28 31 27 24
19 28 -5 27 30 33 29 26
20 29 -6 28 31 34 30 27
21 30 -6 28 31 34 31 27
22 30 -6 28 31 35 31 28
23 31 -6 28 31 35 32 28
24 31 -6 28 31 35 32 28
25 32 -6 28 32 36 33 29
26 33 -7 28 32 36 33 30
27 34 -7 28 33 37 34 30
28 35 -8 28 33 37 34 31
28 35 -8 28 33 37 34 31
29 36 -9 29 34 38 35 32
30 37 -8 29 34 38 35 32
31 37 -8 29 34 39 36 33
32 38 -7 29 34 39 36 33
33 38 -7 29 34 39 36 33
33 38 -6 29 34 40 37 34
32 37 -6 29 34 40 37 34
31 35 -6 29 34 40 37 34
30 33 -6 29 34 40 37 34
29 32 -6 29 34 40 37 34
28 31 -5 30 34 39 36 32
28 31 -4 30 34 38 35 31
28 30 -3 31 33 37 34 30
28 30 0 31 33 36 33 29
28 30 1 31 33 35 32 28
27 27 2 32 32 33 30 26
25 24 3 32 31 32 28 23
23 20 4 31 30 31 26 21
21 17 5 31 29 29 24 19
19 14 5 31 28 28 22 17
17 12 6 30 26 26 20 15
14 11 7 29 25 24 19 14
12 9 8 29 23 22 18 12
10 7 9 28 21 20 16 10
8 6 9 28 20 18 15 9
6 4 10 27 18 16 14 7
5 3 10 26 17 15 13 6
4 2 10 25 16 13 12 5
2 1 10 24 14 11 11 4
1 0 10 23 13 10 11 3
0 -3 10 21 11 8 9 2
-2 -4 10 19 10 7 8 1
-3 -5 10 17 9 6 6 0
-4 -6 10 16 8 5 4 -2
-5 -7 10 14 7 4 3 -3
-7 -9 10 12 5 3 2 -4
-8 -10 9 11 3 1 1 -5
-9 -11 8 9 1 0 0 -6
-11 -13 7 7 0 -2 -2 -7
-12 -14 7 6 -3 -3 -2 -8
-13 -15 6 5 -4 -4 -3 -9
-13 -15 6 5 -5 -4 -3 -9
-12 -14 6 4 -5 -5 -4 -9
-12 -14 6 4 -6 -5 -4 -9
-12 -14 6 4 -6 -5 -4 -9
-11 -14 5 3 -7 -6 -5 -9
-12 -15 4 2 -8 -7 -6 -10
-13 -17 3 2 -8 -7 -6 -10
-14 -19 2 1 -9 -8 -7 -11
-15 -20 2 1 -9 -8 -7 -11
-16 -21 1 0 -10 -9 -8 -12
-15 -21 1 0 -9 -9 -8 -12
-14 -20 1 0 -9 -9 -8 -12
-13 -20 1 0 -8 -9 -8 -12
-12 -20 1 0 -8 -9 -8 -12
-11 -19 2 -2 -7 -10 -8 -11
-11 -18 2 -2 -7 -10 -8 -11
-11 -17 2 0 -7 -9 -8 -11
-11 -16 2 0 -7 -9 -8 -11
-11 -16 2 0 -7 -9 -8 -11
-12 -15 2 1 -8 -8 -8 -11
-13 -16 2 1 -8 -8 -8 -11
-13 -17 2 1 -8 -9 -8 -11
-14 -18 2 1 -8 -9 -8 -11
-14 -18 2 1 -8 -9 -8 -11
-15 -19 3 0 -8 -10 -9 -12
-15 -19 3 0 -8 -10 -9 -12
-14 -18 3 0 -8 -10 -9 -12
-14 -18 3 0 -8 -10 -9 -12
-14 -18 3 0 -8 -10 -9 -12
-13 -17 4 1 -7 -10 -8 -12
-13 -17 4 1 -7 -10 -8 -12
-14 -17 4 0 -7 -11 -9 -12
-14 -17 4 0 -7 -11 -9 -12
-14 -17 4 0 -7 -11 -9 -12
-15 -17 3 -2 -8 -12 -10 -12
-14 -17 3 -2 -8 -12 -10 -12
-14 -17 4 0 -8 -12 -10 -12
-13 -17 4 0 -8 -12 -10 -12
-13 -17 4 0 -8 -12 -10 -12
-12 -17 5 1 -7 -12 -10 -12
-13 -17 5 1 -8 -12 -10 -12
-14 -17 4 0 -8 -12 -10 -12
-15 -17 4 0 -9 -12 -10 -12
-16 -17 4 0 -9 -12 -10 -12
-17 -18 3 -2 -10 -11 -9 -11
-17 -18 3 -2 -10 -11 -9 -11
-18 -18 3 -3 -10 -12 -10 -11
-18 -18 3 -3 -10 -12 -10 -11
-18 -18 3 -3 -10 -12 -10 -11
-19 -17 2 -4 -11 -13 -11 -12
-19 -17 2 -4 -11 -13 -11 -12
-19 -18 2 -4 -11 -13 -11 -12
-19 -18 2 -4 -11 -13 -11 -12
-19 -18 2 -4 -11 -13 -11 -12
-18 -19 1 -5 -12 -14 -12 -13
-18 -19 1 -5 -12 -14 -12 -13
-17 -19 1 -6 -12 -14 -12 -13
-17 -19 1 -6 -12 -14 -12 -13
-17 -19 1 -6 -12 -14 -12 -13
-16 -20 0 -7 -13 -15 -12 -13
-16 -18 1 -6 -12 -14 -12 -12
-16 -17 1 -5 -11 -13 -11 -12
-16 -16 2 -4 -10 -12 -11 -11
-16 -15 2 -3 -9 -11 -11 -11
-15 -14 4 -2 -8 -10 -10 -10
-14 -13 5 -2 -8 -9 -8 -9
-14 -12 6 -2 -8 -9 -7 -8
-13 -11 8 -2 -8 -8 -6 -7
-13 -10 9 -2 -8 -8 -5 -7
-11 -9 10 0 -8 -7 -4 -6
-10 -8 10 0 -8 -7 -4 -6
-9 -7 11 1 -7 -6 -3 -6
-7 -6 11 1 -7 -6 -3 -6
-6 -5 11 1 -7 -6 -3 -6
-5 -2 12 2 -6 -5 -2 -5
-5 2 11 2 -5 -4 0 -4
-6 5 11 2 -4 -4 1 -3
-6 8 10 2 -3 -3 2 -2
-6 11 10 2 -2 -3 3 0
-6 12 9 3 0 -2 4 1
-4 11 7 2 -2 -2 3 1
-2 10 6 1 -3 -3 3 1
1 9 5 0 -4 -3 2 1
3 8 4 -2 -4 -3 2 1
4 7 3 -3 -5 -4 1 0
5 7 3 -3 -4 -4 1 0
6 7 3 -3 -4 -3 2 1
7 7 3 -3 -3 -3 2 1
8 7 3 -3 -3 -3 2 1
8 5 2 -3 -3 -3 3 1
5 2 0 -5 -6 -5 1 0
2 -3 -2 -7 -8 -8 0 -2
0 -6 -3 -9 -11 -10 -2 -4
-4 -10 -4 -11 -13 -12 -3 -5
-6 -12 -5 -12 -14 -14 -5 -7
-9 -14 -5 -14 -16 -15 -8 -10
-11 -15 -4 -15 -17 -16 -10 -13
-13 -17 -4 -16 -18 -18 -12 -15
-16 -19 -4 -17 -19 -19 -15 -18
-17 -20 -3 -18 -20 -20 -16 -19
-17 -21 -3 -18 -21 -20 -16 -19
-17 -22 -4 -18 -21 -21 -16 -19
-17 -23 -4 -18 -22 -21 -16 -19
-17 -24 -4 -18 -22 -21 -16 -19
-18 -25 -5 -19 -23 -22 -17 -20
-18 -24 -5 -19 -23 -22 -17 -20
-17 -23 -5 -19 -22 -22 -17 -20
-17 -22 -5 -19 -22 -22 -17 -20
-17 -21 -5 -19 -22 -22 -17 -20
-16 -20 -5 -18 -21 -21 -17 -19
-17 -21 -5 -18 -21 -21 -17 -19
-18 -22 -4 -18 -21 -21 -17 -19
-19 -23 -4 -18 -21 -21 -17 -19
-20 -24 -4 -18 -21 -21 -17 -19
-21 -25 -3 -18 -21 -21 -17 -19
-21 -24 -3 -18 -21 -21 -17 -19
-21 -23 -3 -18 -21 -21 -17 -19
-21 -23 -3 -18 -21 -21 -17 -19
-21 -22 -3 -18 -21 -21 -17 -19
-22 -21 -3 -19 -21 -21 -16 -19
-21 -21 -3 -19 -21 -21 -17 -19
-20 -22 -4 -19 -21 -22 -17 -20
-20 -22 -4 -19 -21 -22 -18 -20
-19 -22 -4 -19 -21 -22 -18 -20
-20 -22 1 -15 -19 -21 -18 -20
-24 -19 8 -8 -14 -17 -15 -18
-28 -17 16 0 -9 -14 -13 -17
-32 -15 23 7 -4 -10 -11 -15
-35 -12 30 14 2 -6 -8 -13
-38 -6 43 27 13 3 -2 -9
-39 2 56 44 25 13 7 -3
-40 10 69 60 38 23 14 3
-43 17 84 76 51 33 22 9
-44 24 97 93 64 45 29 14
-31 34 96 102 76 57 40 24
-12 46 89 108 88 71 52 36
8 57 81 115 99 85 63 49
27 68 74 121 110 99 75 61
47 79 67 129 121 113 87 73
70 95 48 122 126 121 98 87
97 111 22 109 123 128 108 101
122 127 -3 96 122 135 118 115
148 143 -28 84 121 141 129 130
174 159 -53 70 120 148 139 144
171 144 -70 35 89 120 119 130
154 115 -83 -9 46 77 89 103
139 86 -98 -52 2 35 57 75
122 56 -111 -96 -41 -8 25 48
106 27 -126 -140 -86 -50 -7 20
88 11 -123 -151 -100 -67 -22 5
67 0 -114 -146 -103 -72 -29 -6
47 -12 -105 -142 -105 -78 -37 -16
27 -23 -96 -138 -107 -85 -45 -26
7 -34 -87 -134 -110 -91 -52 -36
-4 -38 -75 -120 -103 -87 -52 -38
-9 -38 -64 -104 -90 -76 -47 -36
-15 -39 -53 -88 -76 -66 -40 -34
-21 -39 -40 -71 -63 -56 -35 -32
-27 -39 -29 -54 -50 -46 -30 -30
-28 -39 -23 -46 -43 -40 -27 -28
-25 -36 -19 -40 -38 -36 -25 -27
-22 -33 -16 -34 -34 -33 -23 -25
-20 -30 -12 -29 -29 -29 -21 -24
-17 -27 -9 -24 -25 -26 -19 -22
-16 -26 -7 -22 -23 -24 -18 -21
-17 -26 -6 -21 -22 -23 -17 -20
-18 -25 -6 -20 -22 -23 -16 -20
-18 -25 -5 -20 -21 -22 -15 -19
-19 -25 -5 -19 -21 -22 -14 -19
-20 -24 -4 -18 -20 -21 -13 -18
-20 -24 -4 -18 -20 -21 -13 -18
-20 -23 -3 -17 -20 -21 -13 -18
-20 -23 -3 -17 -20 -21 -13 -18
-20 -23 -3 -17 -20 -21 -13 -18
-20 -22 -2 -16 -19 -20 -14 -18
-19 -20 -2 -15 -18 -19 -13 -17
-18 -19 0 -14 -17 -19 -12 -16
-18 -17 0 -14 -17 -18 -11 -16
-17 -16 0 -13 -16 -18 -10 -15
-16 -15 1 -12 -15 -17 -9 -14
-16 -17 1 -11 -15 -17 -10 -15
-16 -18 1 -11 -15 -17 -10 -15
-16 -19 1 -10 -15 -17 -11 -16
-16 -20 1 -10 -15 -17 -11 -16
-16 -21 0 -9 -16 -18 -12 -17
-16 -19 0 -9 -15 -17 -11 -16
-15 -18 0 -9 -15 -16 -10 -15
-15 -16 0 -9 -14 -16 -9 -15
-15 -15 0 -9 -14 -15 -8 -14
-14 -14 1 -8 -13 -14 -7 -13
-16 -15 1 -8 -13 -14 -7 -13
-17 -16 1 -8 -13 -14 -7 -14
-18 -17 1 -8 -13 -14 -7 -14
-19 -18 1 -8 -13 -14 -7 -14
-19 -19 0 -8 -14 -14 -8 -15
-16 -17 0 -8 -12 -13 -7 -14
-14 -16 0 -8 -11 -12 -6 -13
-12 -15 0 -8 -10 -12 -5 -12
-9 -14 0 -8 -9 -11 -4 -11
-8 -13 1 -7 -8 -10 -3 -10
-9 -13 1 -6 -8 -10 -3 -10
-11 -12 2 -5 -8 -10 -3 -10
-12 -11 3 -5 -8 -10 -3 -10
-13 -11 3 -4 -8 -10 -3 -10
-13 -10 4 -3 -7 -9 -3 -9
-12 -9 4 -3 -6 -9 -2 -9
-10 -8 4 -2 -5 -8 0 -8
-9 -8 4 0 -4 -8 1 -7
-7 -7 4 0 -3 -8 2 -7
-6 -6 3 1 -2 -7 3 -6
-6 -6 3 2 -2 -6 3 -5
-7 -5 3 4 0 -4 4 -4
-8 -5 3 5 0 -3 5 -4
-8 -5 3 6 0 -2 5 -3
-9 -4 3 7 1 0 6 -2
-9 -3 3 7 1 1 6 -2
-8 -2 3 7 2 2 7 0
-8 -2 3 7 3 2 7 0
-8 0 3 7 3 3 7 0
-6 2 3 8 5 5 8 2
-4 3 3 9 6 6 10 3
0 5 3 11 8 8 11 5
2 7 3 12 10 9 13 6
5 9 3 14 12 11 14 8
6 11 4 15 13 12 15 9
7 12 4 15 14 13 16 10
9 14 3 15 15 15 17 11
10 15 2 15 15 16 18 12
11 17 2 15 16 17 19 13
12 19 1 16 17 19 20 14
13 20 1 17 19 20 22 16
15 22 1 18 20 22 23 17
16 24 1 19 22 23 25 19
17 26 1 20 23 25 26 20
18 27 0 21 24 26 27 21
20 28 -2 21 24 27 28 22
21 29 -3 21 25 28 29 23
23 30 -4 21 26 28 30 24
24 31 -5 21 26 29 31 25
25 32 -6 21 27 30 32 26
26 33 -6 22 28 31 33 27
27 34 -5 23 30 33 35 28
27 34 -5 23 31 34 36 29
28 35 -5 24 32 35 37 30
29 36 -4 25 33 36 38 31
30 36 -4 25 33 36 38 31
32 37 -4 25 33 36 38 32
33 37 -4 25 33 36 38 32
34 37 -4 25 33 36 38 32
35 38 -5 25 33 37 39 33
35 38 -5 25 32 37 39 33
35 38 -6 25 31 36 39 33
35 38 -6 25 31 35 39 33
35 38 -6 25 30 35 39 33
36 39 -7 24 29 34 38 33
36 39 -6 24 30 34 38 33
37 40 -5 25 31 35 38 33
38 40 -4 25 31 36 38 33
38 40 -3 25 32 36 38 33
38 40 -2 26 33 37 38 34
36 38 0 26 33 36 37 33
34 36 2 26 32 35 35 31
32 34 3 26 31 34 34 30
29 32 4 26 31 33 33 29
28 30 5 27 30 31 32 27
26 28 6 27 30 30 30 26
24 26 7 26 29 28 29 24
23 24 7 25 28 26 27 22
21 21 8 25 28 24 26 20
20 20 9 24 27 23 24 19
19 18 10 24 25 21 22 17
18 17 11 24 24 20 20 16
18 15 11 24 22 18 18 14
17 14 12 24 21 17 16 13
16 13 13 24 20 16 15 12
14 12 13 22 18 14 13 10
12 11 13 20 16 12 12 9
11 11 13 19 15 11 10 7
9 10 13 17 13 9 9 6
8 8 13 16 12 8 8 5
6 7 13 15 10 7 7 3
5 5 13 14 9 6 6 1
3 3 13 13 7 6 5 0
2 1 13 12 6 5 4 -3
1 -2 13 11 5 3 3 -4
-2 -4 13 10 4 2 2 -4
-4 -6 12 9 3 0 1 -5
-5 -8 12 8 3 -3 1 -5
-7 -11 12 7 2 -5 0 -5
-8 -12 11 6 1 -6 -2 -6
-8 -12 11 5 -2 -7 -3 -6
-8 -12 10 4 -3 -8 -4 -7
-8 -12 10 3 -5 -8 -4 -8
-8 -12 10 2 -6 -9 -5 -8
-8 -11 9 1 -7 -10 -6 -9
-8 -11 9 1 -7 -10 -6 -9
-8 -11 8 0 -7 -10 -6 -9
-8 -11 7 -2 -7 -10 -6 -9
-8 -11 7 -2 -7 -10 -6 -9
-9 -12 6 -3 -7 -10 -6 -10
-8 -12 6 -3 -7 -10 -6 -10
-7 -13 7 -3 -7 -10 -7 -10
-6 -13 7 -3 -7 -10 -8 -10
-5 -13 7 -3 -7 -10 -8 -10
-4 -14 8 -3 -8 -11 -9 -11
-6 -14 8 -3 -8 -11 -9 -11
-8 -15 7 -3 -7 -11 -9 -11
-9 -16 7 -3 -7 -11 -9 -11
-11 -16 7 -3 -7 -11 -9 -11
-12 -17 6 -3 -6 -11 -8 -11
-12 -17 6 -3 -6 -11 -8 -11
-11 -17 6 -3 -7 -12 -9 -11
-11 -17 6 -3 -7 -12 -10 -11
-11 -17 6 -3 -7 -12 -10 -11
-10 -17 5 -4 -8 -13 -11 -12
-10 -15 5 -4 -8 -13 -11 -12
-9 -14 6 -3 -7 -12 -10 -11
-9 -12 7 -2 -7 -12 -10 -11
-9 -11 7 -2 -7 -12 -10 -11
-8 -10 8 0 -6 -11 -9 -10
-8 -10 8 0 -6 -11 -9 -10
-9 -11 8 0 -6 -11 -9 -11
-10 -12 8 0 -6 -11 -9 -11
-10 -12 8 0 -6 -11 -9 -11
-11 -13 9 1 -6 -12 -10 -12
-11 -13 9 0 -6 -12 -10 -12
-12 -14 8 -2 -7 -13 -10 -12
-12 -15 8 -2 -8 -13 -10 -12
-12 -15 8 -3 -8 -13 -10 -12
-13 -16 7 -4 -9 -14 -11 -13
-13 -16 7 -4 -9 -14 -11 -13
-14 -17 7 -4 -9 -15 -11 -13
-14 -17 7 -4 -9 -15 -11 -13
-14 -17 7 -4 -9 -15 -11 -13
-15 -18 8 -3 -9 -16 -12 -14
-15 -18 8 -3 -9 -16 -12 -14
-15 -17 8 -4 -9 -15 -12 -13
-15 -16 8 -4 -9 -15 -12 -13
-15 -16 8 -4 -9 -15 -12 -13
-14 -15 7 -5 -10 -14 -12 -12
-14 -15 7 -5 -10 -14 -12 -12
-15 -16 6 -5 -11 -15 -12 -13
-16 -16 6 -5 -11 -15 -12 -14
-16 -16 6 -5 -11 -15 -12 -14
-17 -17 5 -6 -12 -16 -13 -15
-17 -17 5 -6 -12 -16 -13 -15
-16 -17 5 -7 -12 -16 -13 -14
-16 -17 5 -7 -12 -16 -13 -14
-16 -17 5 -7 -12 -16 -13 -14
-15 -16 6 -8 -12 -17 -13 -13
-14 -14 7 -7 -11 -16 -13 -13
-12 -12 9 -5 -10 -15 -12 -12
-11 -11 10 -4 -9 -15 -11 -11
-10 -9 11 -3 -8 -14 -11 -11
-9 -8 12 -2 -7 -13 -10 -10
-9 -7 12 -2 -7 -13 -9 -9
-9 -5 12 -2 -7 -12 -8 -8
-9 -4 12 -2 -7 -11 -8 -8
-9 -3 12 -2 -7 -11 -7 -7
-10 -2 11 -3 -7 -10 -6 -6
-10 -2 11 -3 -7 -10 -6 -6
-9 -2 12 -2 -6 -10 -6 -6
-9 -2 12 0 -6 -10 -6 -6
-9 -2 12 0 -6 -10 -6 -6
-8 1 13 1 -5 -10 -6 -7
-6 3 13 1 -5 -9 -5 -5
-5 6 13 1 -5 -7 -3 -4
-4 9 13 1 -5 -6 -2 -3
-2 11 13 1 -5 -5 0 0
0 13 12 1 -4 -4 1 1
0 12 11 1 -4 -4 1 1
0 11 10 0 -4 -4 1 1
0 10 9 0 -4 -4 1 1
0 9 8 0 -4 -4 1 1
0 8 7 -2 -3 -5 1 1
1 7 6 -2 -3 -5 1 1
2 6 5 -2 -4 -5 1 0
2 6 5 -2 -4 -5 1 0
3 5 4 -2 -4 -5 1 0
4 4 3 -3 -5 -5 0 -2
4 3 3 -4 -6 -6 -2 -3
5 2 2 -5 -7 -7 -3 -4
6 1 1 -6 -7 -8 -4 -4
6 0 1 -7 -8 -9 -5 -5
5 -3 0 -8 -9 -11 -6 -7
0 -5 0 -10 -11 -13 -8 -9
-6 -7 0 -11 -13 -15 -9 -12
-10 -9 0 -12 -14 -17 -10 -14
-15 -11 0 -14 -16 -19 -12 -16
-18 -13 -2 -15 -17 -20 -13 -18
-18 -15 -2 -15 -18 -20 -14 -18
-18 -17 -2 -16 -19 -21 -16 -18
-18 -19 -2 -17 -20 -21 -17 -18
-18 -21 -2 -17 -21 -21 -18 -18
-17 -23 -2 -18 -22 -22 -19 -18
-17 -23 -2 -18 -22 -22 -19 -18
-17 -23 -2 -19 -22 -22 -18 -18
-17 -23 -2 -19 -22 -22 -18 -18
-17 -23 -2 -19 -22 -22 -18 -18
-17 -22 -2 -20 -22 -22 -17 -18
-17 -22 -2 -20 -22 -22 -17 -18
-17 -23 -2 -21 -23 -23 -18 -19
-17 -23 -2 -21 -24 -24 -18 -20
-17 -23 -2 -21 -24 -24 -18 -20
-17 -24 -3 -22 -25 -25 -19 -21
-17 -23 -3 -21 -24 -24 -19 -20
-16 -22 -2 -20 -23 -23 -18 -19
-16 -22 -2 -20 -23 -23 -18 -19
-16 -21 -2 -19 -22 -22 -18 -18
-15 -20 0 -18 -21 -21 -17 -17
-16 -21 0 -18 -21 -21 -17 -18
-16 -22 -2 -19 -21 -21 -17 -19
-17 -24 -3 -20 -22 -22 -18 -20
-18 -25 -3 -20 -22 -22 -18 -21
-19 -26 0 -18 -21 -22 -19 -22
-21 -24 7 -12 -17 -20 -17 -20
-22 -23 13 -6 -13 -17 -15 -19
-23 -22 20 2 -8 -14 -13 -18
-25 -20 27 8 -4 -12 -11 -16
-28 -16 37 19 6 -6 -6 -13
-32 -8 51 35 18 5 3 -7
-36 1 64 52 31 15 10 -2
-40 9 78 68 44 25 17 4
-45 16 92 84 57 35 25 10
-38 26 97 96 69 48 34 18
-19 38 91 104 81 63 46 30
1 50 86 112 93 77 57 42
20 62 79 120 105 92 69 54
40 74 73 128 117 106 80 66
62 89 59 127 123 118 92 79
88 107 35 112 125 128 105 97
112 126 11 98 126 136 117 113
137 143 -14 84 127 145 130 131
162 161 -37 69 128 154 142 147
173 157 -58 42 108 140 135 144
164 128 -73 1 64 97 102 116
156 98 -89 -41 20 54 70 89
148 67 -104 -83 -24 12 38 61
140 37 -119 -124 -68 -31 7 34
122 16 -123 -147 -93 -57 -15 14
96 5 -115 -145 -98 -65 -23 2
69 -7 -106 -143 -102 -72 -32 -10
43 -18 -98 -141 -106 -80 -41 -22
16 -30 -89 -139 -110 -88 -51 -33
0 -36 -79 -130 -108 -89 -55 -40
-6 -37 -68 -113 -96 -80 -50 -38
-10 -38 -57 -97 -83 -71 -46 -37
-15 -40 -47 -81 -71 -62 -41 -36
-20 -41 -35 -65 -59 -53 -37 -34
-23 -43 -27 -54 -50 -47 -34 -32
-22 -40 -23 -47 -45 -43 -32 -30
-21 -38 -19 -40 -39 -38 -31 -28
-20 -36 -14 -34 -33 -34 -29 -25
-19 -34 -10 -28 -28 -30 -27 -23
-18 -32 -7 -24 -25 -27 -26 -21
-18 -30 -7 -23 -24 -26 -24 -19
-18 -28 -6 -22 -24 -25 -22 -17
-18 -25 -5 -21 -23 -23 -20 -15
-18 -23 -5 -20 -22 -22 -18 -13
-19 -21 -4 -19 -21 -21 -17 -11
-17 -21 -4 -19 -21 -21 -17 -11
-15 -21 -3 -19 -21 -21 -17 -11
-13 -20 -2 -18 -21 -21 -17 -11
-11 -20 -2 -18 -21 -21 -17 -11
-9 -19 0 -17 -21 -21 -17 -10
-11 -19 0 -17 -21 -21 -17 -9
-13 -19 0 -17 -20 -21 -17 -8
-15 -20 0 -17 -19 -20 -17 -6
-17 -20 0 -17 -19 -20 -17 -5
-18 -21 0 -16 -18 -19 -16 -4
-18 -21 0 -15 -18 -19 -16 -4
-18 -21 0 -15 -18 -19 -15 -4
-18 -21 1 -14 -18 -19 -14 -4
-18 -21 1 -13 -18 -19 -14 -4
-19 -20 2 -12 -17 -18 -13 -3
-19 -20 2 -12 -17 -18 -13 -3
-19 -20 2 -12 -17 -18 -13 -3
-19 -21 2 -12 -17 -18 -13 -3
-19 -21 2 -12 -17 -18 -13 -3
-19 -22 1 -13 -16 -17 -12 -2
-19 -22 1 -12 -15 -17 -12 -2
-19 -22 1 -12 -15 -16 -12 -2
-19 -21 1 -11 -14 -15 -12 -2
-19 -21 1 -10 -13 -15 -12 -2
-18 -20 2 -9 -12 -14 -12 0
-16 -18 2 -9 -12 -13 -12 0
-15 -17 2 -9 -11 -12 -12 0
-13 -15 2 -9 -10 -11 -11 1
-11 -13 2 -9 -10 -10 -11 1
-10 -12 3 -8 -9 -9 -10 2
-10 -12 3 -8 -9 -9 -10 2
-10 -13 3 -9 -9 -9 -10 2
-10 -14 2 -10 -9 -9 -9 2
-10 -14 2 -10 -9 -9 -9 2
-11 -15 1 -11 -10 -9 -8 3
-11 -14 1 -9 -9 -8 -7 4
-11 -14 1 -8 -8 -8 -7 4
-12 -13 1 -6 -6 -7 -6 5
-12 -12 1 -4 -5 -6 -5 6
-13 -11 2 -3 -4 -5 -4 7
-12 -9 2 -3 -3 -4 -4 7
-10 -8 2 -2 -3 -4 -3 7
-9 -6 2 0 -2 -3 -2 8
-7 -4 2 0 0 -2 -2 8
-6 -3 2 1 1 0 0 9
-5 0 2 2 1 1 1 11
-4 1 2 2 1 1 2 12
-3 3 2 3 2 2 4 14
-2 5 2 4 2 3 5 16
0 6 2 5 3 4 6 17
0 6 2 6 5 6 6 17
0 6 2 7 7 8 6 17
0 6 2 9 9 10 6 17
0 6 2 10 10 11 6 17
-2 7 2 11 12 13 7 18
0 9 2 12 13 15 10 20
2 11 2 12 13 17 12 22
3 13 2 13 14 19 14 24
5 14 2 14 15 21 16 25
6 16 2 15 16 23 18 27
7 17 2 15 17 24 18 27
8 17 2 16 18 24 18 28
9 18 1 17 19 25 19 29
10 19 1 17 20 26 19 29
11 21 0 18 21 27 20 30
13 23 -2 18 22 29 22 33
15 26 -2 18 24 30 24 35
17 28 -3 19 25 32 26 38
18 31 -4 19 27 34 28 40
20 33 -5 20 28 35 30 43
22 34 -5 20 29 35 30 43
24 34 -5 20 29 35 30 44
26 35 -4 21 30 36 31 45
27 36 -4 21 31 36 31 45
29 37 -3 22 32 37 32 46
29 37 -3 22 32 37 32 47
29 37 -3 22 32 38 32 48
29 37 -4 22 33 39 33 50
29 37 -4 22 33 39 33 51
30 38 -5 22 34 40 34 52
30 38 -5 22 34 40 34 51
30 38 -5 22 33 40 34 50
30 38 -6 22 32 40 34 49
30 38 -6 22 32 40 34 48
31 38 -7 21 31 39 35 47
31 38 -7 21 31 39 35 47
31 39 -7 21 31 39 35 47
32 40 -6 21 31 38 35 47
32 40 -6 21 31 38 35 47
33 42 -5 21 32 37 34 48
33 40 -2 22 32 37 33 47
32 39 1 24 32 37 33 47
31 38 4 25 32 36 32 46
31 37 6 27 32 36 31 45
30 35 8 28 32 35 30 44
29 32 8 27 31 33 28 40
27 28 8 26 29 32 27 38
26 24 9 24 28 30 25 36
24 21 9 23 26 28 23 34
23 18 10 22 25 27 22 32
20 18 11 22 24 25 20 29
18 18 11 22 23 24 18 27
15 17 12 22 21 22 16 25
13 17 13 22 20 21 15 23
11 16 14 21 19 19 13 21
10 15 14 20 19 17 12 21
8 15 14 18 18 16 11 20
7 14 14 17 17 14 10 19
5 13 14 15 17 13 9 19
4 11 13 14 16 11 8 17
3 8 13 13 13 9 5 15
1 5 13 12 11 7 3 12
0 2 13 10 8 5 1 9
-3 -2 13 9 6 3 -2 6
-4 -5 13 8 4 1 -4 4
-4 -6 13 7 3 1 -4 4
-4 -7 13 6 2 0 -4 3
-4 -9 12 5 0 -2 -5 2
-4 -10 12 4 -2 -2 -5 2
-4 -11 11 3 -3 -3 -6 1
-5 -11 11 2 -3 -4 -6 1
-6 -11 10 1 -3 -4 -7 1
-7 -11 9 0 -4 -5 -8 1
-8 -11 9 -2 -4 -6 -8 1
-9 -10 8 -3 -5 -7 -9 0
-9 -10 8 -3 -5 -7 -9 0
-9 -10 7 -3 -5 -7 -9 0
-9 -10 6 -4 -6 -7 -9 0
-9 -10 6 -4 -6 -7 -9 0
-10 -11 5 -5 -7 -8 -10 0
-10 -11 5 -5 -7 -8 -10 -2
-10 -12 5 -5 -7 -8 -10 -3
-10 -13 5 -6 -8 -9 -10 -4
-10 -13 5 -6 -8 -9 -10 -5
-11 -14 5 -7 -9 -10 -10 -6
-11 -14 5 -7 -9 -10 -10 -6
-11 -14 5 -7 -9 -10 -10 -6
-12 -13 5 -6 -9 -9 -10 -6
-12 -13 5 -6 -9 -9 -10 -6
-13 -12 6 -5 -8 -8 -9 -5
-12 -12 6 -5 -8 -8 -9 -5
-12 -12 6 -5 -8 -8 -9 -6
-11 -11 6 -5 -8 -8 -10 -7
-10 -11 6 -5 -8 -8 -10 -7
-9 -10 6 -4 -9 -9 -11 -8
-9 -10 6 -4 -9 -9 -11 -8
-9 -10 6 -4 -8 -9 -11 -8
-9 -11 7 -4 -7 -9 -11 -8
-9 -11 7 -4 -7 -9 -11 -8
-9 -12 8 -4 -6 -9 -11 -8
-9 -12 8 -4 -6 -9 -11 -8
-9 -12 8 -4 -7 -10 -11 -9
-9 -12 7 -4 -8 -11 -11 -10
-9 -12 7 -4 -8 -11 -11 -10
-9 -12 6 -4 -9 -12 -11 -11
-10 -12 6 -4 -9 -12 -11 -11
-10 -12 6 -4 -8 -12 -11 -10
-11 -11 6 -4 -8 -11 -11 -10
-12 -11 6 -4 -7 -11 -11 -9
-13 -10 7 -5 -6 -10 -10 -8
-14 -11 7 -6 -7 -10 -11 -9
-14 -11 7 -6 -7 -11 -12 -11
-15 -12 6 -7 -8 -11 -13 -12
-16 -13 6 -8 -9 -12 -14 -14
-17 -14 5 -9 -10 -13 -15 -15
-17 -13 5 -9 -10 -13 -15 -14
-17 -12 6 -9 -9 -13 -14 -13
-16 -11 6 -8 -9 -12 -14 -12
-16 -10 7 -8 -8 -12 -13 -10
-15 -9 8 -7 -7 -11 -12 -9
-15 -9 8 -7 -7 -11 -12 -10
-15 -10 8 -7 -8 -11 -12 -10
-15 -10 7 -8 -8 -11 -13 -11
-15 -11 7 -8 -9 -11 -13 -12
-14 -12 6 -9 -10 -12 -14 -13
-14 -12 6 -9 -10 -12 -14 -13
-14 -12 6 -9 -10 -13 -14 -13
-14 -12 5 -9 -11 -13 -14 -13
-14 -12 5 -9 -11 -14 -14 -13
-14 -13 4 -9 -12 -15 -14 -14
-14 -13 5 -9 -11 -15 -14 -14
-14 -12 6 -9 -11 -15 -14 -13
-14 -12 7 -8 -10 -15 -13 -13
-14 -11 9 -8 -9 -15 -13 -12
-14 -10 10 -7 -8 -15 -12 -11
-14 -9 10 -7 -8 -14 -12 -11
-14 -7 10 -7 -8 -13 -12 -11
-14 -6 10 -6 -7 -12 -12 -10
-14 -4 10 -6 -7 -11 -12 -10
-13 -3 10 -5 -6 -10 -11 -9
-12 0 11 -4 -5 -9 -10 -8
-11 1 12 -3 -4 -8 -9 -7
-10 3 13 -2 -3 -7 -8 -6
-8 4 15 1 -2 -6 -6 -5
-7 6 16 2 0 -5 -5 -4
-8 8 15 1 0 -5 -4 -3
-8 10 14 1 0 -5 -3 -2
-9 11 13 0 0 -5 -2 0
-10 13 11 -2 0 -5 1 1
-11 15 10 -3 0 -4 2 2
-7 15 9 -3 0 -4 2 2
-4 15 9 -3 0 -4 2 2
0 16 8 -3 -2 -4 2 2
3 16 7 -3 -2 -4 2 2
6 17 6 -3 -3 -5 1 1
5 14 6 -3 -3 -5 1 1
4 12 5 -3 -3 -5 0 1
3 10 5 -4 -3 -5 0 1
1 7 4 -4 -3 -5 -2 1
0 5 3 -5 -4 -5 -3 0
-2 3 2 -7 -6 -7 -5 -3
-2 0 1 -9 -8 -9 -7 -5
-3 -3 0 -10 -10 -11 -8 -6
-4 -5 -3 -12 -12 -13 -10 -8
-5 -7 -4 -14 -14 -15 -12 -10
-8 -9 -4 -15 -15 -16 -13 -12
-10 -11 -4 -16 -16 -17 -15 -13
-12 -12 -4 -17 -17 -18 -16 -15
-15 -14 -4 -18 -19 -20 -17 -16
-17 -16 -4 -19 -20 -21 -19 -18
-18 -17 -4 -19 -20 -21 -19 -19
-18 -19 -4 -19 -20 -21 -19 -19
-19 -20 -4 -19 -21 -22 -20 -20
-20 -21 -4 -19 -21 -22 -20 -21
-21 -23 -3 -20 -22 -23 -21 -22
-21 -23 -3 -20 -22 -23 -21 -22
-21 -23 -3 -20 -22 -23 -21 -21
-20 -22 -3 -20 -22 -23 -21 -21
-20 -22 -3 -20 -22 -23 -21 -20
-19 -21 -3 -20 -21 -22 -20 -19
-19 -21 -3 -20 -21 -22 -20 -19
-19 -21 -3 -20 -21 -22 -20 -19
-19 -21 -3 -20 -21 -22 -20 -19
-19 -21 -3 -20 -21 -22 -20 -19
-18 -20 -4 -21 -22 -22 -21 -20
-18 -19 -4 -21 -22 -22 -21 -20
-18 -19 -4 -21 -22 -22 -21 -20
-17 -18 -4 -21 -22 -22 -21 -20
-17 -17 -4 -21 -22 -22 -21 -20
-16 -16 -4 -21 -21 -22 -20 -20
-17 -17 -4 -21 -21 -22 -20 -20
-18 -19 -4 -21 -21 -22 -20 -20
-19 -20 -4 -21 -21 -22 -20 -20
-20 -21 -4 -21 -21 -22 -20 -20
-21 -22 0 -19 -20 -21 -20 -20
-25 -18 12 -7 -13 -17 -17 -19
-29 -14 24 5 -6 -13 -15 -18
-33 -10 36 16 2 -9 -13 -17
-37 -6 49 27 9 -5 -10 -15
-40 -2 60 40 18 3 -6 -13
-38 7 70 57 32 15 4 -6
-36 15 81 73 47 27 12 1
-35 22 92 90 61 39 21 8
-33 30 102 106 75 52 30 15
-26 40 107 119 90 66 42 24
-4 58 95 123 103 86 59 44
18 76 81 128 116 104 76 63
40 94 69 131 130 123 94 82
62 111 56 135 143 143 112 101
84 127 38 131 151 157 126 117
100 131 7 102 141 153 127 122
117 135 -26 73 131 149 128 129
134 139 -58 45 121 146 129 134
151 143 -90 16 111 142 130 139
159 141 -114 -15 92 129 123 138
138 114 -118 -51 47 84 91 109
116 89 -122 -87 1 39 59 81
95 62 -126 -121 -46 -6 27 53
73 35 -130 -157 -92 -50 -6 24
53 13 -131 -182 -126 -85 -31 1
38 2 -119 -168 -119 -85 -36 -9
24 -9 -107 -153 -114 -85 -41 -18
9 -20 -96 -139 -108 -86 -47 -27
-6 -30 -85 -124 -102 -86 -52 -36
-17 -39 -73 -110 -95 -85 -55 -44
-18 -38 -62 -96 -83 -74 -50 -40
-20 -37 -51 -81 -71 -64 -45 -37
-21 -36 -40 -67 -60 -54 -39 -34
-22 -35 -29 -52 -49 -44 -34 -31
-24 -34 -20 -40 -39 -35 -30 -28
-23 -31 -17 -36 -36 -33 -29 -27
-21 -28 -15 -32 -33 -31 -27 -25
-19 -25 -12 -28 -30 -28 -25 -23
-18 -23 -9 -24 -27 -26 -24 -22
-16 -20 -7 -21 -24 -24 -22 -20
-16 -20 -7 -21 -24 -24 -22 -20
-16 -20 -7 -21 -24 -24 -21 -20
-16 -20 -7 -20 -24 -23 -21 -19
-16 -20 -7 -20 -24 -23 -20 -19
-17 -20 -6 -19 -23 -22 -19 -18
-18 -20 -5 -19 -23 -22 -19 -18
-19 -20 -4 -18 -23 -22 -19 -18
-20 -21 -3 -17 -23 -21 -20 -18
-22 -21 -2 -16 -23 -21 -20 -18
-23 -22 0 -15 -22 -20 -21 -18
-23 -22 0 -15 -22 -20 -21 -18
-23 -22 -2 -15 -22 -20 -21 -17
-23 -22 -2 -15 -22 -20 -20 -17
-23 -22 -3 -15 -22 -20 -20 -16
-23 -21 -4 -16 -21 -19 -19 -15
-22 -21 -4 -16 -21 -19 -19 -15
-21 -21 -3 -15 -21 -19 -19 -15
-20 -20 -2 -15 -21 -18 -19 -15
-19 -20 0 -14 -21 -18 -19 -15
-18 -19 1 -13 -20 -17 -18 -14
-18 -19 1 -12 -20 -17 -18 -14
-18 -18 1 -11 -19 -16 -17 -13
-18 -18 1 -10 -19 -16 -17 -12
-18 -17 1 -9 -18 -15 -16 -11
-17 -16 1 -8 -17 -14 -15 -10
-17 -16 1 -8 -17 -14 -15 -10
-17 -17 1 -7 -17 -14 -15 -10
-16 -18 0 -7 -17 -14 -15 -11
-16 -19 0 -6 -17 -14 -15 -11
-15 -20 -2 -5 -18 -14 -16 -12
-15 -19 -2 -5 -18 -14 -16 -11
-15 -18 -2 -5 -17 -13 -16 -10
-16 -17 -2 -4 -17 -13 -15 -9
-16 -15 -2 -4 -16 -12 -15 -7
-17 -14 -2 -3 -15 -11 -14 -6
-16 -13 -2 -2 -15 -11 -14 -6
-15 -11 0 0 -14 -10 -13 -5
-14 -10 1 1 -13 -9 -12 -4
-13 -9 2 3 -12 -8 -11 -3
-12 -7 3 4 -11 -7 -10 -2
-12 -7 3 4 -11 -7 -10 -2
-12 -7 3 5 -10 -6 -9 0
-12 -7 2 5 -10 -6 -8 1
-12 -7 2 6 -9 -5 -7 2
-13 -8 1 7 -8 -4 -6 3
-13 -8 2 8 -7 -3 -6 3
-13 -8 3 10 -5 0 -5 3
-13 -8 4 12 -4 1 -5 3
-13 -8 6 13 -3 2 -4 3
-12 -8 7 15 0 4 -3 2
-11 -6 7 15 1 5 -2 4
-9 -4 6 15 2 6 1 6
-8 0 5 15 3 7 2 9
-7 2 4 15 4 9 3 11
-5 4 3 16 5 10 5 13
-5 5 3 17 6 12 5 13
-5 6 3 18 8 13 6 13
-4 7 3 19 10 15 6 14
-4 9 3 20 11 17 7 14
-3 10 3 21 13 19 8 15
-2 11 3 22 14 20 10 17
1 13 3 24 15 21 12 19
2 14 3 26 16 22 14 21
3 15 3 27 17 24 16 23
5 17 4 29 18 25 18 25
7 19 4 30 20 27 19 26
8 22 4 31 21 28 21 27
10 24 4 32 23 30 22 28
12 27 4 34 25 32 23 30
14 29 3 35 27 34 25 31
14 29 3 35 27 34 26 31
14 30 3 35 28 35 27 32
14 30 2 35 28 36 28 32
14 31 2 35 29 37 29 33
15 32 1 36 30 38 30 34
16 32 1 36 30 38 30 34
17 33 1 36 31 39 31 34
18 34 1 37 31 40 31 34
19 35 1 37 32 42 32 34
20 36 1 38 33 43 33 34
20 36 1 38 33 43 33 35
20 36 1 38 33 44 34 36
20 37 1 38 33 44 34 37
20 37 1 38 33 45 35 38
21 38 0 37 33 46 36 39
21 38 0 37 33 46 36 39
21 38 0 37 33 46 36 39
22 38 1 37 34 46 36 39
22 38 1 37 34 46 36 39
23 38 2 37 35 45 36 38
23 37 2 37 34 44 36 38
22 35 2 36 33 43 35 37
22 34 2 36 32 42 34 36
21 33 2 35 31 40 33 35
20 31 3 34 30 39 32 34
19 30 5 34 30 38 32 33
17 29 6 35 30 37 31 31
15 28 8 35 29 36 31 30
14 27 10 36 29 35 30 29
12 25 12 37 28 34 29 27
12 24 12 36 27 33 27 25
12 22 12 34 25 32 25 24
12 21 13 33 23 31 23 22
12 20 13 32 22 30 20 20
13 18 14 30 20 28 18 18
12 16 14 30 19 26 17 16
10 15 15 29 17 23 15 14
9 13 15 29 16 20 13 12
8 11 16 28 15 18 12 10
6 9 17 27 13 15 10 8
5 9 17 25 11 14 9 7
4 8 17 23 10 13 8 6
3 8 16 21 8 12 7 5
2 7 16 18 6 11 6 4
0 6 15 16 4 9 5 2
0 4 15 16 3 7 4 1
-2 2 15 15 2 5 3 0
-2 0 15 14 1 3 1 -2
-3 -4 15 13 0 0 0 -3
-4 -6 14 12 -2 -3 -3 -5
-6 -8 13 10 -3 -4 -4 -5
-8 -10 12 7 -5 -5 -5 -6
-10 -12 10 5 -7 -6 -7 -7
-13 -15 9 3 -8 -7 -8 -8
-15 -17 7 0 -10 -9 -10 -9
-15 -17 7 0 -10 -9 -10 -9
-15 -17 6 0 -11 -10 -10 -10
-15 -17 6 -2 -11 -11 -11 -11
-15 -17 5 -2 -12 -12 -11 -12
-15 -18 4 -3 -13 -13 -12 -13
-15 -17 4 -3 -13 -13 -12 -13
-15 -16 4 -3 -13 -13 -11 -13
-14 -15 4 -3 -13 -12 -11 -13
-14 -14 4 -3 -13 -12 -10 -13
-13 -13 5 -3 -12 -11 -9 -12
-13 -14 5 -3 -12 -11 -9 -12
-13 -15 5 -3 -12 -11 -9 -12
-12 -16 5 -3 -12 -11 -10 -12
-12 -17 5 -3 -12 -11 -10 -12
-11 -18 5 -3 -11 -12 -11 -13
-11 -18 5 -3 -11 -12 -11 -13
-11 -17 5 -3 -11 -12 -11 -13
-11 -16 5 -4 -11 -13 -12 -13
-11 -15 5 -4 -11 -13 -12 -13
-10 -14 5 -5 -12 -14 -13 -14
-10 -14 5 -4 -12 -14 -13 -14
-10 -13 5 -3 -11 -14 -13 -14
-10 -13 5 -2 -11 -14 -12 -14
-10 -12 5 0 -10 -14 -12 -14
-11 -11 6 1 -9 -13 -11 -13
-11 -11 6 1 -9 -13 -11 -13
-11 -11 6 1 -9 -13 -11 -13
-11 -11 6 0 -9 -13 -11 -13
-11 -11 6 0 -9 -13 -11 -13
-10 -12 7 -2 -9 -12 -11 -14
-11 -13 7 -2 -9 -12 -11 -14
-13 -15 7 -2 -9 -12 -11 -14
-14 -17 7 -2 -9 -12 -12 -14
-16 -19 7 -2 -9 -12 -12 -14
-18 -21 6 -2 -10 -13 -13 -15
-17 -20 6 -2 -10 -13 -13 -15
-16 -18 6 -2 -10 -13 -13 -15
-14 -17 6 -2 -10 -13 -13 -15
-13 -15 6 -2 -10 -13 -13 -15
-11 -13 6 -3 -9 -13 -12 -14
-11 -13 6 -3 -9 -13 -12 -14
-11 -12 6 -3 -9 -13 -12 -14
-10 -11 7 -3 -9 -13 -12 -14
-10 -10 7 -3 -9 -13 -12 -14
-9 -9 8 -3 -8 -12 -11 -15
-10 -10 8 -3 -8 -12 -11 -15
-11 -11 8 -4 -9 -13 -11 -15
-12 -12 7 -4 -10 -13 -12 -15
-13 -13 7 -5 -11 -14 -12 -15
-15 -15 6 -6 -12 -15 -13 -16
-15 -15 6 -6 -12 -15 -13 -16
-15 -15 6 -6 -12 -15 -13 -16
-14 -15 5 -6 -13 -15 -13 -17
-14 -15 5 -6 -13 -15 -13 -17
-13 -15 4 -7 -14 -16 -14 -18
-13 -14 4 -7 -13 -15 -13 -17
-13 -12 5 -6 -12 -14 -12 -16
-12 -10 5 -6 -10 -13 -11 -14
-12 -8 6 -5 -9 -12 -10 -13
-11 -6 7 -4 -7 -10 -9 -11
-11 -6 7 -4 -7 -10 -9 -11
-11 -5 8 -4 -7 -10 -9 -11
-11 -5 9 -3 -7 -10 -9 -11
-11 -4 10 -3 -7 -10 -9 -11
-10 -3 11 -2 -8 -10 -10 -10
-10 -2 11 -2 -8 -10 -10 -10
-10 1 11 -2 -7 -10 -9 -10
-9 2 11 -2 -7 -9 -8 -9
-9 4 11 -2 -6 -9 -7 -9
-8 6 11 0 -5 -8 -6 -8
-7 8 11 0 -4 -7 -5 -7
-5 10 11 1 -3 -6 -4 -5
-4 12 12 1 -2 -4 -2 -4
-2 14 12 2 0 -3 0 -2
1 16 13 3 2 0 2 1
1 16 12 2 1 0 2 1
1 16 10 1 0 -2 2 1
1 15 9 0 -2 -2 1 0
1 15 7 -2 -3 -3 1 0
0 14 5 -4 -4 -4 0 -2
1 13 5 -4 -4 -4 0 -2
3 12 5 -3 -4 -4 0 -2
4 10 4 -3 -4 -4 -2 -2
6 9 4 -2 -4 -4 -2 -2
8 7 3 0 -3 -3 -3 0
7 6 2 -3 -4 -4 -3 -2
5 4 1 -5 -6 -6 -4 -3
3 3 0 -8 -8 -7 -5 -5
1 1 -2 -10 -10 -9 -6 -6
-2 -2 -4 -13 -12 -11 -7 -8
-3 -3 -4 -13 -13 -12 -8 -9
-4 -5 -4 -13 -14 -13 -10 -11
-5 -7 -3 -14 -15 -14 -12 -12
-6 -9 -3 -14 -16 -15 -14 -14
-7 -11 -2 -15 -18 -17 -16 -16
-8 -12 -2 -16 -18 -17 -16 -16
-9 -13 -3 -17 -19 -18 -17 -16
-11 -14 -3 -18 -19 -18 -18 -17
-12 -15 -4 -19 -20 -19 -19 -17
-14 -17 -5 -21 -21 -20 -20 -18
-14 -18 -5 -21 -21 -20 -20 -18
-15 -19 -5 -21 -21 -20 -20 -18
-15 -20 -6 -21 -21 -21 -20 -19
-16 -21 -6 -21 -21 -21 -20 -19
-17 -23 -7 -20 -22 -22 -21 -20
-17 -23 -7 -20 -22 -22 -21 -20
-17 -23 -7 -20 -22 -22 -21 -20
-17 -23 -7 -20 -21 -21 -21 -19
-17 -23 -7 -20 -21 -21 -21 -19
-17 -22 -6 -19 -20 -20 -20 -18
-17 -22 -6 -19 -20 -20 -20 -18
-17 -22 -6 -19 -20 -20 -20 -18
-17 -22 -5 -19 -20 -20 -20 -18
-17 -22 -5 -19 -20 -20 -20 -18
-16 -21 -4 -19 -19 -21 -20 -19
-16 -21 -4 -19 -19 -21 -20 -19
-16 -21 -4 -19 -20 -21 -20 -19
-16 -21 -4 -19 -20 -21 -20 -19
-16 -21 -4 -19 -21 -21 -20 -19
-17 -22 -4 -20 -22 -20 -20 -19
-19 -19 8 -11 -16 -17 -19 -19
-21 -16 18 0 -9 -14 -18 -18
-23 -13 29 9 -3 -10 -16 -17
-25 -10 40 18 4 -7 -15 -16
-28 -6 52 28 11 -3 -13 -15
-28 1 63 45 24 9 -5 -10
-28 8 73 61 38 20 4 -4
-29 15 85 76 52 31 12 2
-29 22 96 93 65 43 20 8
-30 29 107 109 79 54 28 14
-10 47 97 115 95 74 47 32
12 64 87 122 111 95 65 52
32 81 76 129 128 115 82 70
54 99 65 136 143 136 101 90
74 116 55 143 159 156 119 108
92 125 22 117 153 156 125 117
110 134 -10 92 146 157 130 127
129 143 -43 66 139 158 136 137
146 152 -74 40 132 159 141 146
164 161 -107 15 125 160 147 156
144 134 -114 -26 75 113 113 129
123 105 -121 -66 27 66 79 100
103 77 -129 -107 -22 19 47 72
82 49 -136 -147 -71 -27 13 44
62 21 -143 -188 -119 -74 -21 16
49 11 -132 -175 -115 -76 -27 6
35 0 -119 -161 -110 -78 -34 -5
21 -11 -107 -148 -106 -80 -40 -15
8 -22 -95 -135 -101 -82 -48 -25
-7 -33 -82 -121 -96 -85 -55 -35
-9 -33 -70 -106 -83 -74 -51 -33
-12 -33 -58 -90 -71 -64 -46 -30
-14 -33 -46 -73 -59 -54 -40 -28
-17 -33 -33 -57 -47 -44 -35 -25
-20 -33 -20 -40 -34 -33 -30 -22
-20 -32 -18 -37 -32 -31 -29 -22
-19 -31 -16 -34 -30 -29 -28 -22
-18 -29 -14 -31 -28 -27 -26 -21
-17 -28 -12 -28 -26 -25 -25 -21
-16 -26 -9 -25 -23 -23 -23 -20
-17 -26 -9 -25 -23 -23 -23 -20
-18 -25 -8 -24 -23 -23 -23 -20
-18 -25 -8 -23 -22 -22 -23 -20
-19 -24 -7 -22 -22 -22 -23 -20
-20 -24 -7 -22 -22 -22 -23 -20
-20 -22 -6 -21 -21 -21 -22 -20
-18 -21 -5 -20 -20 -20 -21 -20
-17 -19 -5 -19 -20 -19 -20 -20
-15 -18 -4 -18 -19 -18 -19 -20
-14 -17 -4 -17 -19 -18 -19 -20
-13 -17 -3 -16 -18 -17 -18 -19
-14 -19 -3 -16 -18 -17 -18 -19
-15 -20 -3 -16 -18 -18 -18 -19
-16 -22 -3 -16 -18 -18 -18 -19
-17 -23 -3 -16 -18 -18 -18 -19
-18 -23 -3 -17 -17 -19 -18 -18
-17 -21 -3 -17 -17 -18 -18 -18
-16 -20 -2 -16 -16 -17 -17 -18
-15 -18 -2 -16 -16 -16 -17 -18
-15 -17 -2 -16 -16 -16 -17 -18
-15 -16 0 -15 -15 -15 -16 -17
-16 -17 0 -15 -15 -15 -16 -17
-17 -18 0 -15 -15 -15 -16 -17
-18 -19 0 -15 -15 -15 -16 -17
-19 -19 0 -15 -15 -15 -16 -17
-19 -19 -2 -15 -15 -16 -15 -16
-18 -18 0 -14 -14 -15 -14 -15
-17 -16 0 -13 -13 -14 -14 -15
-16 -15 1 -12 -12 -13 -13 -14
-15 -14 1 -11 -11 -12 -13 -14
-14 -13 2 -10 -10 -11 -12 -13
-14 -13 2 -10 -9 -11 -12 -13
-13 -12 2 -9 -9 -11 -12 -12
-13 -12 2 -9 -8 -11 -12 -12
-13 -12 2 -9 -8 -11 -12 -12
-12 -11 3 -8 -7 -10 -11 -11
-12 -10 3 -7 -7 -9 -10 -10
-12 -9 3 -6 -6 -9 -10 -10
-12 -8 3 -5 -6 -8 -9 -9
-12 -8 3 -4 -6 -8 -9 -9
-12 -7 4 -3 -5 -7 -8 -8
-12 -8 4 -2 -4 -6 -7 -8
-12 -8 4 -2 -3 -5 -7 -8
-12 -9 4 0 -2 -4 -6 -8
-12 -9 4 0 -2 -4 -6 -8
-11 -9 3 1 0 -2 -5 -7
-10 -7 3 2 1 0 -5 -6
-10 -5 3 2 2 1 -4 -5
-9 -3 3 3 3 2 -4 -4
-9 -2 3 3 3 3 -4 -3
-7 1 4 5 5 5 -2 0
-5 3 4 6 7 7 1 1
-4 5 5 8 8 9 3 3
-2 7 5 9 10 11 5 4
0 8 5 10 11 12 6 5
1 9 6 11 12 13 7 6
2 9 6 12 13 14 8 6
3 10 5 13 14 15 9 7
4 10 5 14 15 16 10 7
4 10 5 14 15 17 11 7
5 12 4 15 17 18 13 9
5 13 4 16 18 19 14 10
4 14 3 17 20 20 16 11
4 15 3 18 21 21 17 12
4 16 3 18 22 22 18 13
4 17 2 20 24 24 19 14
6 18 2 21 26 26 20 15
7 19 3 22 27 28 21 16
9 20 3 23 29 30 22 17
10 21 3 24 30 31 22 18
12 23 4 25 31 32 24 20
13 25 4 26 32 33 25 21
15 27 3 27 32 34 27 23
16 29 3 28 33 35 28 24
17 30 3 28 33 36 29 25
19 33 2 29 35 38 31 27
21 35 3 30 36 39 32 28
23 37 3 31 38 42 34 29
25 39 4 32 39 43 35 30
26 42 4 33 40 44 36 31
27 43 5 34 42 45 37 32
28 43 4 34 42 45 37 32
29 43 4 34 42 45 37 32
30 43 3 34 42 45 37 32
31 43 3 34 42 45 37 32
32 44 2 33 40 45 37 33
31 43 2 33 40 45 37 33
30 42 2 33 40 45 37 32
29 40 2 33 40 45 37 32
28 40 2 33 40 45 37 32
27 39 2 33 40 44 37 31
28 38 3 33 40 44 36 31
28 38 4 34 40 44 36 31
29 37 5 34 40 44 35 31
29 37 5 34 40 44 35 31
28 35 7 35 39 42 33 30
25 33 8 34 38 39 32 28
22 31 10 34 37 38 31 27
19 29 11 33 36 36 30 25
16 28 12 33 35 35 29 24
15 26 13 32 33 33 28 22
15 25 14 32 32 32 27 21
15 24 15 32 31 30 26 20
15 23 16 32 30 29 25 19
15 22 16 32 29 28 24 18
12 19 17 30 27 25 21 15
10 17 17 29 25 23 19 13
8 15 17 27 23 21 17 11
5 12 17 26 21 18 14 8
3 10 17 25 19 16 12 6
2 9 16 24 17 14 11 5
2 8 16 23 16 13 10 4
1 7 16 22 14 11 9 3
1 6 16 21 13 10 8 2
1 6 16 21 12 9 8 1
-2 3 17 18 10 7 5 -2
-3 0 16 16 8 5 3 -3
-5 -4 15 13 6 3 1 -5
-6 -6 14 10 4 1 -2 -6
-7 -9 14 8 2 0 -4 -7
-8 -10 13 7 1 -2 -5 -8
-8 -9 12 7 1 -2 -5 -8
-7 -9 11 6 0 -3 -5 -8
-7 -8 10 6 0 -3 -5 -8
-7 -8 10 6 0 -3 -5 -8
-7 -7 9 4 -2 -4 -5 -9
-8 -8 9 3 -3 -5 -6 -10
-10 -9 9 2 -4 -5 -6 -10
-11 -10 9 1 -5 -6 -7 -11
-12 -11 9 0 -5 -6 -7 -11
-13 -12 8 -2 -6 -7 -8 -12
-13 -12 8 -2 -6 -7 -8 -12
-13 -11 8 -2 -6 -7 -8 -12
-13 -11 8 -2 -6 -7 -8 -12
-13 -11 8 -2 -6 -7 -8 -12
-12 -10 8 -2 -7 -8 -8 -13
-12 -11 8 -2 -7 -8 -8 -13
-12 -12 8 -2 -7 -8 -8 -14
-12 -13 8 -2 -7 -8 -8 -14
-12 -13 8 -2 -7 -8 -8 -14
-11 -14 7 -3 -8 -9 -9 -15
-11 -14 7 -3 -8 -9 -9 -15
-11 -13 7 -3 -8 -10 -9 -15
-11 -13 7 -3 -8 -10 -9 -15
-11 -13 7 -3 -8 -10 -9 -15
-12 -12 7 -4 -9 -11 -10 -15
-14 -13 7 -3 -9 -11 -10 -15
-15 -13 7 -3 -9 -10 -10 -15
-17 -14 7 -2 -9 -10 -10 -15
-18 -14 7 -2 -9 -10 -10 -15
-18 -14 8 0 -8 -9 -9 -15
-16 -13 8 0 -8 -9 -9 -15
-14 -12 8 0 -7 -8 -8 -14
-13 -11 8 0 -7 -8 -8 -14
-11 -10 8 0 -7 -8 -8 -14
-10 -9 9 -2 -6 -7 -7 -13
-11 -10 9 -2 -6 -7 -7 -13
-11 -10 9 -2 -7 -8 -8 -14
-12 -11 9 -2 -7 -8 -8 -14
-12 -11 9 -2 -7 -8 -8 -14
-13 -12 9 0 -8 -9 -9 -15
-13 -12 9 0 -8 -9 -9 -15
-13 -12 9 0 -8 -9 -10 -15
-13 -12 9 0 -8 -9 -10 -15
-13 -12 9 0 -8 -9 -10 -15
-14 -12 8 -2 -9 -9 -11 -16
-15 -13 8 -2 -9 -10 -11 -16
-16 -13 8 -3 -9 -10 -12 -16
-17 -14 8 -3 -9 -11 -12 -16
-17 -14 8 -3 -9 -11 -12 -16
-18 -15 8 -4 -10 -12 -13 -17
-18 -15 7 -4 -10 -12 -13 -17
-18 -15 7 -4 -10 -12 -13 -17
-18 -15 6 -4 -10 -12 -13 -17
-18 -15 6 -4 -10 -12 -13 -17
-18 -15 5 -5 -11 -13 -13 -17
-17 -14 5 -5 -11 -13 -13 -17
-17 -14 5 -5 -11 -13 -13 -17
-16 -13 5 -5 -11 -13 -13 -17
-16 -13 5 -5 -11 -13 -13 -17
-14 -12 6 -5 -11 -13 -13 -17
-13 -11 6 -5 -11 -13 -13 -16
-12 -10 6 -5 -11 -13 -12 -16
-11 -9 6 -5 -11 -13 -12 -15
-10 -8 6 -5 -11 -13 -12 -15
-10 -7 7 -6 -11 -13 -11 -14
-11 -7 8 -6 -11 -13 -11 -14
-13 -7 9 -6 -10 -13 -11 -15
-15 -7 10 -6 -10 -13 -11 -15
-16 -7 11 -6 -10 -13 -11 -15
-16 -7 12 -5 -9 -12 -10 -15
-15 -5 12 -4 -9 -11 -9 -14
-14 -3 12 -3 -9 -10 -8 -13
-12 -2 12 -2 -9 -9 -7 -12
-11 1 12 0 -9 -8 -6 -11
-10 4 12 1 -8 -6 -4 -10
-9 7 13 1 -7 -5 -3 -9
-8 9 14 2 -6 -4 -2 -9
-7 12 15 2 -5 -2 1 -8
-6 15 15 2 -4 0 2 -8
-5 15 15 2 -4 0 3 -7
-5 14 12 1 -5 -2 2 -7
-6 13 10 -2 -6 -3 1 -7
-6 11 8 -4 -7 -5 0 -7
-6 10 6 -5 -8 -6 0 -7
-6 9 5 -5 -8 -6 -2 -7
-4 10 5 -4 -7 -5 0 -6
-2 11 5 -3 -5 -4 1 -5
1 12 5 0 -3 -3 2 -4
3 13 5 1 -2 -2 2 -4
4 13 5 1 -2 -2 2 -4
5 11 4 0 -4 -3 1 -5
5 9 4 -2 -6 -4 0 -6
6 7 3 -4 -7 -6 -3 -8
6 5 3 -5 -9 -7 -4 -9
5 2 2 -7 -10 -9 -5 -10
1 -2 1 -8 -12 -10 -7 -12
-4 -5 1 -9 -13 -11 -8 -13
-7 -8 0 -11 -14 -13 -9 -14
-11 -11 0 -12 -15 -14 -10 -15
-13 -13 -2 -13 -17 -16 -12 -16
-14 -15 -2 -14 -18 -17 -13 -17
-15 -17 -2 -15 -19 -18 -15 -18
-17 -18 -2 -16 -21 -20 -17 -19
-18 -20 -2 -17 -22 -21 -18 -20
-19 -21 -3 -18 -23 -22 -19 -21
-19 -21 -3 -18 -23 -22 -19 -21
-19 -20 -3 -18 -23 -22 -18 -21
-19 -20 -3 -18 -23 -22 -18 -21
-19 -20 -3 -18 -23 -22 -18 -21
-19 -19 -3 -19 -22 -21 -17 -20
-19 -20 -3 -20 -22 -22 -17 -20
-18 -21 -3 -20 -23 -22 -18 -20
-18 -22 -3 -21 -23 -23 -18 -20
-18 -22 -3 -21 -23 -23 -18 -20
-17 -23 -3 -22 -24 -24 -19 -21
-17 -23 -3 -22 -24 -24 -19 -21
-17 -23 -3 -22 -24 -24 -19 -21
-17 -23 -3 -22 -24 -24 -19 -21
-17 -23 -3 -22 -24 -24 -19 -21
-18 -23 -2 -22 -23 -23 -18 -21
-18 -21 -2 -22 -23 -23 -18 -21
-17 -20 -2 -22 -23 -23 -18 -20
-17 -19 -2 -22 -23 -23 -18 -20
-17 -18 -2 -22 -23 -23 -18 -20
-17 -17 0 -20 -21 -22 -17 -19
-20 -17 2 -18 -20 -21 -17 -19
-22 -17 5 -15 -18 -20 -17 -18
-25 -17 7 -13 -16 -19 -17 -18
-27 -17 10 -10 -15 -18 -17 -18
-31 -12 23 4 -5 -11 -11 -14
-36 -5 39 20 8 -2 -5 -10
-40 4 56 35 20 8 3 -6
-46 11 72 52 32 16 10 -2
-51 18 89 67 45 25 16 4
-40 27 93 81 59 38 26 13
-25 36 93 94 72 54 37 23
-11 46 93 107 87 68 49 34
5 55 93 120 101 84 59 45
19 65 93 134 115 98 70 55
43 86 77 131 127 115 88 75
67 109 55 122 137 134 107 98
92 134 33 114 147 151 126 119
116 157 11 106 157 169 145 142
141 182 -11 98 168 187 164 164
147 165 -36 61 135 158 145 150
146 138 -62 17 90 117 113 126
145 110 -88 -28 45 75 82 100
144 82 -114 -73 -2 34 52 75
143 54 -140 -117 -47 -8 21 51
122 36 -141 -134 -67 -30 4 33
98 22 -133 -141 -81 -48 -11 18
73 7 -124 -149 -95 -65 -24 4
49 -8 -117 -157 -109 -83 -38 -12
24 -22 -109 -165 -123 -101 -53 -26
12 -27 -97 -153 -116 -98 -54 -30
4 -29 -83 -134 -103 -88 -51 -31
-5 -31 -70 -114 -90 -77 -48 -31
-13 -32 -57 -95 -76 -67 -45 -32
-21 -34 -43 -76 -62 -58 -41 -32
-22 -33 -35 -65 -55 -51 -38 -31
-20 -31 -28 -57 -48 -46 -34 -29
-19 -28 -22 -49 -41 -40 -30 -26
-17 -26 -16 -40 -35 -34 -26 -23
-15 -23 -10 -31 -29 -29 -22 -20
-14 -22 -8 -29 -27 -27 -21 -19
-15 -22 -7 -27 -27 -27 -21 -18
-16 -22 -7 -26 -26 -26 -21 -17
-17 -22 -6 -25 -26 -26 -21 -16
-18 -22 -6 -24 -26 -26 -21 -16
-19 -22 -5 -23 -25 -25 -20 -15
-18 -22 -4 -23 -24 -24 -20 -15
-18 -21 -3 -22 -23 -23 -19 -15
-17 -21 -2 -22 -22 -22 -19 -15
-17 -21 0 -22 -22 -22 -19 -15
-16 -19 1 -21 -21 -21 -18 -15
-16 -18 1 -20 -20 -20 -17 -15
-15 -17 2 -19 -19 -20 -16 -14
-15 -15 2 -18 -18 -19 -15 -14
-15 -14 2 -18 -18 -19 -14 -14
-14 -14 3 -17 -17 -18 -13 -13
-14 -15 3 -17 -17 -18 -14 -13
-15 -16 2 -17 -18 -18 -15 -13
-15 -18 2 -17 -18 -18 -16 -13
-15 -19 2 -17 -18 -18 -16 -13
-16 -20 1 -17 -19 -19 -17 -13
-16 -19 1 -16 -18 -19 -16 -13
-16 -18 1 -16 -18 -19 -15 -12
-16 -17 1 -15 -17 -19 -14 -12
-16 -16 1 -15 -17 -19 -14 -12
-15 -15 2 -14 -16 -18 -13 -11
-15 -15 2 -14 -16 -17 -13 -11
-15 -15 2 -14 -16 -17 -13 -11
-15 -15 2 -14 -16 -16 -13 -11
-15 -15 2 -14 -16 -16 -13 -11
-15 -15 2 -13 -15 -15 -13 -11
-14 -14 2 -13 -14 -15 -12 -11
-13 -13 2 -12 -13 -14 -12 -11
-13 -13 2 -12 -13 -14 -11 -11
-12 -12 2 -12 -12 -14 -11 -11
-11 -11 3 -11 -11 -13 -10 -10
-11 -11 3 -10 -11 -13 -10 -9
-11 -10 3 -9 -10 -12 -10 -9
-11 -10 3 -9 -10 -12 -10 -8
-11 -10 3 -8 -10 -12 -10 -8
-10 -9 2 -7 -9 -11 -9 -7
-10 -9 2 -6 -8 -11 -9 -7
-11 -9 2 -6 -8 -10 -8 -6
-11 -9 2 -5 -7 -10 -8 -6
-11 -9 2 -5 -7 -10 -8 -6
-11 -9 3 -4 -6 -8 -7 -5
-9 -7 4 -2 -4 -7 -5 -3
-8 -4 4 0 -3 -5 -4 -2
-6 -2 5 1 -2 -4 -3 0
-4 1 5 2 0 -2 -2 1
-3 2 6 3 1 0 0 2
-3 3 5 4 2 1 1 3
-3 3 5 5 3 2 2 4
-3 4 4 5 4 3 2 5
-3 4 4 6 5 4 3 6
0 6 3 7 6 5 4 7
1 7 3 8 7 6 5 7
2 9 3 9 8 7 5 7
4 10 3 9 8 7 6 7
5 12 3 10 9 8 6 7
6 13 4 12 11 10 8 9
7 13 4 13 13 12 9 11
8 14 4 14 14 14 11 12
9 14 4 16 16 17 12 14
10 14 4 17 18 19 14 16
12 16 5 18 19 20 15 17
14 17 5 19 20 21 16 19
15 19 5 19 21 22 17 20
17 20 5 20 21 23 18 21
19 22 5 20 22 24 19 22
20 23 4 21 23 25 20 23
20 25 3 22 25 26 22 25
19 26 2 23 26 27 23 26
19 27 2 23 27 28 24 27
19 28 1 24 28 29 25 28
19 30 0 25 29 30 26 29
22 33 0 26 31 32 28 31
25 35 0 27 32 33 29 32
27 37 0 27 33 34 30 34
30 40 0 28 34 35 31 35
31 42 -2 29 35 36 32 36
31 40 -2 29 35 36 33 36
31 40 -2 30 35 36 33 36
31 39 -2 30 35 36 34 36
31 39 -2 30 35 36 34 36
32 38 -3 31 35 37 35 37
33 40 -3 31 35 37 35 37
35 42 -3 31 35 37 35 38
36 43 -3 31 35 37 35 38
38 44 -3 31 35 37 35 38
39 45 -3 30 35 38 35 39
38 43 -3 30 35 38 35 39
37 42 -3 30 35 38 35 38
36 40 -3 30 35 38 35 38
35 39 -3 30 35 38 35 38
34 38 -2 30 35 37 35 37
34 38 0 30 34 36 34 35
33 38 1 30 34 35 34 34
33 38 1 30 33 34 33 33
33 38 2 30 33 33 33 32
32 37 4 30 32 32 32 31
31 36 5 31 31 31 30 29
30 35 7 31 31 30 29 28
30 34 8 32 30 29 27 27
29 33 10 32 30 28 26 26
26 29 11 33 28 26 24 24
23 25 11 31 26 23 21 22
20 20 11 30 25 21 18 20
17 16 11 28 23 19 15 17
14 11 11 27 21 16 12 15
13 9 12 26 20 15 11 14
13 9 13 26 19 14 10 13
12 9 13 25 18 13 10 13
12 9 14 25 18 13 9 12
12 9 14 25 17 12 9 12
10 9 15 23 15 10 7 10
8 7 15 21 13 7 6 8
6 5 14 19 12 5 4 6
3 3 14 16 10 3 3 4
1 1 14 14 8 0 1 2
0 0 13 13 6 -2 0 1
-3 -2 12 12 5 -3 -2 0
-4 -3 12 12 3 -4 -3 -2
-6 -3 11 11 2 -5 -3 -2
-7 -4 11 11 0 -6 -4 -3
-8 -6 10 10 -2 -7 -5 -4
-8 -7 9 8 -4 -8 -7 -5
-8 -9 9 7 -5 -9 -8 -6
-8 -10 8 6 -6 -9 -9 -6
-8 -12 8 5 -7 -10 -10 -7
-8 -13 7 4 -8 -11 -11 -8
-8 -12 7 4 -8 -11 -11 -8
-8 -12 7 4 -8 -11 -11 -8
-8 -11 7 4 -8 -11 -11 -8
-8 -11 7 4 -8 -11 -11 -8
-8 -10 6 4 -7 -10 -11 -8
-8 -10 6 4 -7 -10 -11 -8
-7 -11 6 3 -8 -11 -12 -9
-7 -11 6 2 -8 -12 -12 -9
-7 -11 6 2 -8 -12 -12 -9
-6 -12 5 1 -9 -13 -13 -10
-8 -13 5 1 -9 -13 -13 -10
-9 -14 5 1 -9 -13 -13 -10
-11 -15 5 1 -9 -13 -13 -10
-12 -16 5 1 -9 -13 -13 -10
-12 -17 4 1 -10 -13 -13 -11
-10 -16 4 1 -10 -13 -13 -11
-8 -15 4 2 -10 -13 -13 -11
-5 -14 4 2 -10 -13 -13 -11
-3 -13 4 2 -10 -13 -13 -11
-3 -12 5 3 -9 -14 -12 -10
-5 -12 5 3 -9 -14 -12 -10
-8 -12 5 3 -8 -13 -12 -10
-10 -12 5 3 -8 -13 -12 -10
-13 -12 5 3 -8 -13 -12 -10
-14 -13 6 3 -7 -12 -12 -11
-12 -13 6 3 -7 -12 -12 -11
-11 -13 6 3 -7 -12 -13 -11
-9 -13 6 3 -7 -12 -13 -11
-8 -13 6 3 -7 -12 -13 -11
-7 -12 7 2 -7 -13 -14 -11
-8 -12 7 2 -7 -13 -14 -11
-9 -12 6 1 -8 -13 -14 -11
-10 -12 6 0 -8 -13 -14 -11
-11 -12 6 0 -8 -13 -14 -11
-12 -11 5 -2 -9 -14 -14 -12
-12 -12 5 -2 -9 -14 -14 -12
-12 -13 5 -2 -9 -14 -14 -12
-12 -13 5 -2 -9 -14 -14 -12
-12 -14 5 -2 -9 -14 -14 -12
-12 -15 6 -3 -10 -14 -13 -12
-12 -15 6 -3 -10 -14 -13 -12
-12 -15 6 -3 -10 -14 -13 -12
-12 -15 6 -3 -10 -14 -13 -12
-12 -15 6 -3 -10 -14 -13 -12
-12 -14 5 -4 -10 -15 -14 -11
-12 -14 5 -4 -10 -15 -14 -11
-12 -15 5 -5 -11 -15 -14 -12
-12 -15 5 -6 -11 -15 -14 -12
-12 -15 5 -6 -11 -15 -14 -12
-13 -16 4 -7 -12 -16 -15 -13
-13 -16 4 -7 -12 -16 -15 -13
-13 -16 3 -7 -13 -17 -16 -13
-13 -16 3 -7 -13 -17 -16 -13
-13 -16 3 -7 -13 -17 -16 -13
-13 -16 2 -8 -14 -18 -17 -14
-13 -15 2 -8 -14 -18 -17 -14
-13 -14 3 -8 -13 -17 -16 -13
-13 -13 4 -8 -13 -16 -15 -13
-13 -12 4 -8 -13 -16 -15 -13
-12 -11 5 -7 -12 -15 -14 -12
-12 -11 6 -7 -12 -14 -13 -12
-13 -10 8 -6 -11 -13 -12 -11
-13 -9 9 -5 -11 -12 -11 -11
-13 -9 10 -5 -11 -11 -10 -11
-14 -8 11 -4 -10 -10 -9 -10
-13 -6 11 -4 -9 -10 -9 -10
-11 -5 11 -3 -8 -10 -9 -9
-10 -3 11 -2 -8 -10 -9 -8
-9 -2 11 -2 -7 -10 -9 -8
-8 1 12 0 -6 -9 -8 -7
-7 4 12 0 -6 -9 -7 -7
-6 7 12 1 -5 -8 -5 -6
-6 10 12 1 -4 -7 -4 -5
-5 12 12 1 -4 -7 -3 -5
-4 14 11 2 -3 -6 -2 -4
-2 13 9 1 -4 -6 -2 -4
0 12 8 -2 -5 -6 -2 -3
2 11 6 -3 -5 -6 -2 -3
3 10 5 -4 -6 -6 -2 -3
4 9 4 -5 -7 -6 -3 -2
5 9 4 -5 -7 -6 -3 -2
6 9 3 -4 -6 -5 -3 -2
7 9 2 -4 -5 -4 -3 -2
8 9 2 -4 -5 -4 -3 -2
9 7 1 -3 -4 -3 -3 0
8 5 1 -5 -6 -4 -4 -2
7 3 0 -6 -7 -6 -5 -4
6 1 0 -8 -9 -7 -6 -5
5 -2 0 -9 -10 -8 -7 -6
3 -4 -2 -10 -12 -10 -9 -8
0 -7 -2 -12 -13 -12 -11 -10
-4 -10 -2 -14 -15 -14 -13 -12
-7 -13 -2 -15 -17 -16 -15 -14
-10 -16 -2 -17 -19 -18 -17 -17
-12 -18 -3 -18 -20 -19 -18 -18
-13 -20 -3 -18 -21 -19 -18 -18
-14 -21 -4 -19 -22 -20 -19 -19
-15 -23 -4 -20 -22 -21 -20 -20
-16 -24 -4 -20 -23 -21 -20 -20
-17 -25 -5 -21 -24 -22 -21 -21
-17 -25 -5 -21 -24 -22 -21 -21
-17 -24 -5 -20 -24 -22 -21 -21
-17 -24 -5 -19 -24 -22 -21 -21
-17 -24 -5 -19 -24 -22 -21 -21
-16 -23 -4 -18 -23 -21 -20 -20
-16 -24 -4 -18 -23 -21 -20 -20
-17 -25 -4 -18 -23 -21 -20 -20
-17 -25 -4 -18 -23 -21 -20 -20
-17 -26 -4 -18 -23 -21 -20 -20
-18 -27 -4 -19 -24 -22 -20 -21
-17 -25 -4 -19 -24 -22 -20 -21
-16 -23 -4 -19 -24 -22 -20 -21
-16 -22 -4 -19 -24 -22 -20 -21
-15 -20 -4 -19 -24 -22 -20 -21
-14 -19 -3 -19 -23 -22 -20 -21
-14 -21 -3 -19 -23 -22 -20 -21
-14 -23 -3 -19 -23 -22 -21 -21
-14 -24 -3 -19 -23 -22 -21 -21
-14 -26 -3 -19 -23 -22 -21 -21
-16 -26 1 -16 -22 -22 -21 -22
-18 -22 8 -11 -17 -18 -19 -21
-20 -19 15 -7 -12 -15 -16 -19
-22 -15 21 -2 -7 -11 -14 -18
-25 -12 28 4 -3 -8 -12 -17
-27 -7 39 15 8 0 -7 -14
-30 0 53 32 20 10 1 -9
-33 6 66 51 32 20 8 -4
-36 13 79 68 46 29 15 2
-39 19 93 86 58 39 22 7
-31 28 96 98 70 53 31 16
-12 40 90 106 82 67 44 29
8 53 85 115 95 82 56 42
27 65 78 123 107 98 68 54
47 76 72 132 119 112 80 66
69 92 56 128 126 122 93 80
94 109 30 111 126 130 104 96
118 126 5 95 125 137 115 111
144 143 -21 78 123 144 127 128
169 160 -47 62 123 151 138 143
175 152 -66 32 98 132 126 135
165 122 -80 -10 54 89 94 107
156 93 -96 -52 10 46 61 78
147 63 -110 -94 -34 3 29 51
138 33 -126 -136 -78 -40 -3 23
119 15 -128 -153 -100 -63 -22 5
94 4 -118 -150 -103 -69 -30 -7
68 -7 -108 -146 -106 -75 -38 -18
43 -17 -98 -142 -109 -82 -47 -28
17 -28 -89 -138 -112 -89 -55 -39
2 -34 -77 -128 -107 -87 -57 -45
-6 -36 -66 -111 -95 -77 -53 -44
-12 -38 -55 -95 -81 -68 -48 -41
-19 -40 -44 -78 -68 -59 -44 -40
-26 -43 -32 -62 -55 -50 -38 -39
-28 -43 -25 -51 -47 -43 -35 -37
-25 -39 -21 -46 -41 -39 -33 -35
-22 -37 -17 -39 -36 -35 -30 -32
-19 -34 -13 -34 -31 -31 -28 -30
-16 -32 -9 -28 -27 -27 -26 -28
-14 -30 -7 -25 -24 -25 -24 -26
-15 -29 -7 -24 -24 -24 -24 -26
-16 -27 -6 -23 -24 -23 -23 -25
-16 -26 -6 -23 -24 -23 -22 -24
-17 -25 -6 -22 -24 -22 -22 -24
-18 -24 -5 -21 -23 -21 -21 -23
-18 -24 -4 -20 -23 -21 -21 -23
-18 -23 -3 -19 -23 -21 -20 -23
-18 -23 -3 -18 -23 -21 -19 -23
-18 -23 -2 -17 -23 -21 -19 -23
-17 -22 0 -16 -22 -21 -18 -24
-16 -21 0 -16 -21 -20 -18 -24
-15 -20 1 -16 -20 -19 -17 -23
-15 -19 1 -16 -19 -19 -17 -22
-14 -18 1 -16 -18 -18 -17 -22
-13 -17 2 -15 -17 -17 -16 -21
-13 -18 2 -15 -17 -17 -16 -21
-13 -19 1 -15 -18 -17 -16 -21
-13 -19 1 -15 -18 -17 -16 -21
-13 -20 1 -15 -18 -17 -16 -21
-13 -21 0 -14 -19 -18 -17 -21
-14 -21 0 -14 -18 -17 -17 -21
-15 -21 0 -13 -17 -16 -16 -20
-15 -21 0 -12 -17 -16 -16 -19
-16 -21 0 -12 -16 -15 -16 -19
-17 -20 0 -11 -15 -14 -15 -18
-17 -20 0 -11 -15 -14 -15 -18
-17 -20 0 -12 -15 -14 -15 -18
-17 -20 0 -12 -15 -14 -15 -18
-17 -20 0 -12 -15 -14 -15 -18
-16 -21 0 -13 -15 -14 -15 -19
-15 -19 0 -13 -15 -14 -14 -18
-14 -17 1 -12 -14 -13 -12 -17
-13 -15 1 -12 -13 -12 -11 -17
-12 -13 1 -12 -13 -12 -10 -16
-11 -12 2 -11 -12 -11 -9 -15
-11 -12 2 -10 -12 -11 -9 -15
-11 -13 2 -9 -11 -10 -9 -15
-11 -13 2 -9 -10 -10 -9 -15
-11 -13 2 -8 -10 -10 -9 -15
-10 -14 2 -7 -9 -9 -10 -15
-11 -13 2 -7 -9 -8 -10 -14
-12 -12 2 -7 -8 -7 -9 -13
-13 -12 2 -7 -7 -7 -8 -13
-14 -11 2 -7 -7 -6 -8 -12
-14 -10 2 -6 -6 -5 -7 -11
-12 -10 2 -4 -5 -4 -6 -11
-10 -9 2 -3 -4 -3 -5 -10
-8 -9 2 -2 -4 -3 -5 -10
-6 -9 2 1 -3 -2 -4 -10
-5 -8 2 2 -2 0 -3 -9
-5 -7 2 2 1 2 -2 -7
-5 -6 2 2 2 3 0 -5
-4 -5 2 3 3 4 2 -3
-4 -4 2 3 5 6 3 0
-3 -3 3 4 6 7 4 1
-2 0 3 5 6 8 4 1
0 2 3 6 7 9 5 2
2 4 3 7 8 10 6 3
3 6 3 8 8 11 6 3
4 7 2 9 9 12 7 4
4 8 2 9 11 14 9 6
4 8 2 10 12 15 10 7
5 9 2 11 13 17 12 8
5 10 2 11 15 19 14 10
7 12 1 12 16 20 15 11
9 14 1 13 17 21 16 12
12 16 1 14 18 22 17 13
15 18 0 15 20 24 19 15
17 20 0 16 21 25 20 16
19 22 -2 17 22 26 21 17
19 24 -2 17 23 28 23 19
20 25 -2 18 24 29 24 20
21 27 -3 19 25 31 25 21
21 29 -3 19 26 33 27 23
22 30 -4 20 27 34 28 24
23 30 -4 20 27 34 28 24
24 30 -4 20 27 34 28 24
25 31 -5 20 27 34 28 24
26 31 -5 20 27 34 28 24
27 32 -6 21 28 34 28 25
28 33 -6 21 28 34 29 26
29 34 -6 21 28 35 30 27
30 35 -6 21 28 36 31 28
31 36 -6 21 28 36 32 29
32 37 -7 21 29 37 33 30
32 37 -7 21 29 37 33 30
33 37 -7 21 29 37 33 30
34 37 -6 22 29 37 33 30
34 37 -6 22 29 37 33 30
35 38 -5 23 30 38 33 31
35 38 -5 23 30 38 33 31
35 38 -5 23 30 38 33 31
35 38 -4 23 30 38 33 31
35 38 -4 23 30 38 33 31
36 37 -3 23 30 38 32 31
34 35 -2 23 30 37 30 29
32 33 0 23 29 36 29 28
30 31 1 23 28 34 28 26
28 29 2 23 28 33 26 24
27 27 3 24 27 32 25 23
26 25 4 24 26 31 24 22
25 24 5 24 26 30 24 21
23 23 7 24 25 29 23 20
22 21 8 24 24 28 22 19
21 20 9 24 23 27 21 18
20 19 10 24 22 26 19 16
19 18 11 24 22 25 18 14
18 16 12 24 21 23 16 12
17 15 13 24 20 22 14 10
16 14 14 24 19 21 13 9
14 12 14 22 17 19 11 7
13 11 14 20 15 17 10 6
11 9 14 18 13 15 8 5
9 7 14 16 11 13 6 3
8 6 13 14 9 11 5 2
5 4 13 13 8 9 3 0
3 2 13 12 7 8 2 -2
1 0 13 11 5 7 1 -3
-2 -3 13 10 4 5 -2 -5
-4 -5 12 9 3 4 -3 -6
-4 -6 11 7 1 2 -4 -7
-5 -6 11 5 -2 1 -5 -8
-6 -7 10 3 -4 -2 -6 -9
-6 -8 9 1 -5 -4 -7 -10
-7 -9 8 -2 -7 -5 -8 -11
-7 -10 8 -2 -7 -5 -8 -11
-7 -11 8 -2 -7 -5 -8 -11
-8 -13 8 -2 -7 -5 -8 -11
-8 -14 8 -2 -7 -5 -8 -11
-9 -15 8 -3 -8 -5 -9 -11
-9 -15 8 -3 -8 -5 -9 -11
-9 -15 7 -4 -8 -5 -9 -11
-9 -15 6 -5 -9 -5 -10 -12
-9 -15 6 -5 -9 -5 -10 -12
-9 -16 5 -6 -10 -6 -11 -13
-9 -16 5 -6 -10 -6 -11 -13
-9 -16 5 -6 -10 -6 -11 -13
-10 -17 5 -6 -10 -6 -11 -13
-10 -17 5 -6 -10 -6 -11 -13
-11 -18 6 -7 -11 -7 -11 -13
-11 -17 6 -7 -11 -7 -11 -13
-10 -17 6 -7 -11 -7 -11 -13
-9 -16 6 -7 -11 -7 -11 -13
-9 -15 6 -7 -11 -7 -11 -13
-8 -14 6 -6 -10 -7 -11 -13
-8 -15 6 -6 -10 -7 -11 -13
-9 -16 6 -6 -10 -7 -11 -13
-10 -17 6 -6 -10 -7 -11 -14
-10 -18 6 -6 -10 -7 -11 -14
-11 -19 6 -7 -10 -8 -12 -15
-11 -18 6 -7 -10 -8 -12 -15
-11 -17 6 -7 -10 -8 -12 -15
-11 -15 6 -6 -10 -8 -12 -15
-11 -14 6 -6 -10 -8 -12 -15
-12 -13 7 -5 -9 -8 -12 -14
-12 -13 7 -5 -9 -8 -12 -14
-12 -13 7 -5 -9 -8 -12 -14
-12 -14 7 -5 -9 -9 -12 -15
-12 -14 7 -5 -9 -9 -12 -15
-11 -15 6 -6 -10 -10 -12 -16
-11 -15 6 -6 -10 -10 -12 -16
-11 -14 6 -6 -10 -10 -12 -15
-10 -13 7 -5 -10 -9 -11 -14
-10 -13 7 -5 -10 -9 -11 -14
-9 -12 8 -4 -9 -8 -10 -13
-9 -13 8 -4 -9 -8 -10 -13
-10 -14 8 -4 -9 -8 -11 -13
-11 -16 8 -5 -9 -9 -12 -14
-11 -17 8 -5 -9 -9 -12 -14
-12 -18 7 -6 -10 -10 -13 -15
-12 -18 7 -6 -10 -10 -13 -15
-12 -18 7 -6 -10 -10 -13 -15
-13 -18 6 -7 -10 -10 -13 -14
-13 -18 6 -7 -10 -10 -13 -14
-14 -17 5 -8 -10 -11 -12 -13
-14 -17 5 -8 -10 -11 -12 -13
-14 -17 5 -8 -11 -11 -12 -13
-14 -17 5 -8 -12 -12 -13 -14
-14 -17 5 -8 -12 -12 -13 -14
-15 -17 5 -9 -13 -13 -14 -15
-15 -16 5 -9 -13 -12 -13 -14
-15 -16 6 -9 -13 -12 -13 -14
-14 -15 7 -8 -12 -11 -12 -13
-14 -14 7 -8 -12 -10 -11 -12
-13 -13 8 -7 -11 -9 -10 -11
-13 -12 8 -7 -11 -9 -10 -11
-13 -11 8 -7 -11 -9 -10 -11
-12 -10 8 -7 -11 -9 -10 -11
-12 -9 8 -7 -11 -9 -10 -11
-11 -8 9 -7 -10 -9 -10 -12
-11 -7 10 -6 -10 -9 -10 -12
-11 -7 11 -6 -9 -8 -10 -11
-11 -6 12 -5 -8 -7 -9 -10
-11 -5 13 -4 -8 -7 -9 -10
-10 -3 14 -3 -7 -6 -8 -9
-9 0 14 -3 -7 -5 -7 -8
-8 3 14 -3 -6 -4 -6 -7
-6 5 13 -2 -5 -3 -4 -5
-5 8 13 -2 -5 -2 -3 -4
-4 10 12 0 -4 0 -2 -3
-4 10 11 0 -4 0 -2 -3
-3 10 9 -2 -4 -2 -2 -3
-2 10 8 -3 -5 -3 -2 -2
-2 10 6 -3 -5 -3 -2 -2
0 10 5 -4 -6 -4 -3 0
1 10 5 -4 -6 -3 -3 0
2 10 5 -3 -6 -3 -3 0
4 11 5 -2 -5 -2 -2 0
5 11 5 -2 -5 0 -2 0
6 12 4 0 -4 1 0 1
6 9 3 -3 -5 0 -2 0
5 6 2 -5 -7 -3 -4 -2
4 4 0 -7 -8 -4 -5 -3
4 1 -2 -9 -10 -6 -7 -4
3 -2 -3 -11 -11 -7 -8 -5
1 -3 -3 -11 -12 -8 -9 -6
0 -4 -3 -12 -13 -9 -10 -7
-3 -6 -2 -13 -14 -10 -11 -9
-4 -7 -2 -13 -15 -11 -12 -10
-6 -8 0 -14 -16 -12 -13 -11
-9 -11 0 -14 -17 -13 -14 -12
-11 -13 0 -15 -18 -15 -16 -13
-13 -15 -2 -16 -19 -16 -17 -15
-15 -17 -2 -16 -20 -18 -19 -16
-17 -19 -3 -17 -21 -19 -20 -17
-17 -20 -3 -17 -21 -19 -20 -17
-17 -20 -3 -18 -22 -20 -20 -17
-17 -21 -3 -19 -23 -21 -20 -18
-17 -22 -3 -19 -23 -21 -20 -18
-17 -23 -4 -20 -24 -22 -21 -19
-17 -23 -4 -20 -24 -22 -21 -19
-17 -22 -4 -19 -24 -22 -21 -19
-17 -21 -4 -18 -23 -22 -21 -19
-17 -21 -4 -18 -23 -22 -21 -19
-17 -20 -3 -17 -22 -21 -20 -19
-17 -21 -3 -17 -22 -21 -20 -19
-17 -21 -3 -17 -22 -22 -20 -19
-18 -22 -3 -17 -22 -23 -20 -19
-18 -23 -3 -17 -22 -23 -20 -19
-19 -24 -4 -18 -23 -24 -21 -18
-19 -24 -4 -18 -22 -23 -20 -18
-20 -24 -3 -17 -22 -22 -20 -18
-21 -24 -2 -16 -21 -20 -19 -18
-21 -24 -2 -16 -20 -19 -18 -18
-22 -23 0 -15 -19 -18 -17 -18
-21 -22 2 -13 -18 -18 -17 -18
-20 -20 4 -11 -17 -17 -17 -18
-19 -19 6 -9 -15 -16 -16 -18
-18 -17 8 -7 -14 -16 -16 -18
-19 -14 15 1 -9 -12 -13 -16
-26 -7 30 17 4 -4 -7 -11
-33 0 46 32 16 6 0 -7
-40 7 61 49 28 15 7 -2
-48 14 76 65 40 24 13 3
-49 21 88 79 53 34 21 9
-33 29 88 91 65 47 30 18
-18 37 88 102 77 59 39 26
-4 46 88 113 90 72 49 35
12 54 88 125 102 85 58 44
30 67 82 132 113 99 70 56
56 90 64 127 123 115 89 77
81 113 46 121 134 132 107 99
107 136 26 116 144 148 126 120
133 158 8 111 154 165 144 142
150 167 -14 94 148 164 147 150
151 141 -39 51 106 127 118 127
152 115 -65 9 64 89 90 103
153 90 -91 -34 21 51 61 79
154 64 -116 -76 -21 13 32 56
147 43 -132 -108 -55 -18 9 35
121 28 -126 -118 -70 -35 -5 21
95 14 -118 -128 -86 -53 -18 7
68 1 -112 -137 -102 -71 -31 -9
43 -14 -105 -146 -117 -89 -46 -23
21 -24 -97 -148 -124 -99 -55 -33
12 -27 -86 -132 -112 -91 -52 -34
3 -30 -74 -115 -99 -81 -50 -35
-8 -32 -64 -99 -87 -73 -48 -36
-17 -35 -53 -82 -73 -65 -45 -38
-24 -37 -43 -68 -62 -58 -41 -39
-23 -34 -36 -59 -56 -52 -37 -36
-21 -32 -30 -50 -49 -46 -34 -33
-20 -30 -23 -40 -41 -39 -30 -30
-18 -27 -17 -32 -34 -33 -26 -27
-17 -25 -12 -25 -29 -29 -23 -24
-17 -24 -10 -23 -27 -27 -22 -23
-16 -22 -9 -20 -25 -26 -21 -23
-16 -21 -7 -18 -23 -24 -20 -22
-15 -19 -6 -16 -21 -23 -18 -21
-14 -18 -4 -14 -19 -21 -17 -20
-14 -18 -4 -14 -19 -21 -17 -20
-14 -18 -4 -14 -19 -21 -17 -20
-15 -19 -4 -15 -20 -22 -17 -20
-15 -19 -4 -15 -20 -22 -17 -20
-16 -20 -5 -16 -21 -23 -18 -21
-16 -20 -5 -15 -21 -22 -18 -21
-17 -20 -5 -14 -21 -22 -17 -21
-17 -20 -5 -13 -20 -21 -17 -21
-18 -20 -5 -11 -20 -20 -16 -21
-19 -20 -4 -10 -19 -19 -15 -20
-17 -18 -4 -10 -18 -19 -15 -20
-14 -16 -3 -9 -18 -19 -15 -20
-12 -14 -3 -9 -17 -19 -15 -20
-10 -12 -2 -8 -16 -19 -15 -20
-8 -10 0 -7 -15 -19 -15 -19
-9 -11 0 -7 -15 -19 -15 -19
-11 -13 0 -7 -15 -19 -15 -19
-12 -14 0 -7 -15 -19 -15 -19
-14 -16 0 -7 -15 -19 -15 -19
-15 -17 -2 -6 -15 -18 -14 -20
-15 -17 -2 -6 -15 -18 -14 -19
-15 -16 -2 -6 -14 -17 -14 -19
-15 -16 -2 -6 -14 -17 -14 -18
-15 -15 -2 -6 -13 -16 -14 -17
-15 -14 -2 -6 -12 -15 -14 -16
-15 -14 -2 -5 -12 -15 -13 -16
-15 -14 -2 -5 -12 -15 -12 -16
-14 -14 0 -4 -12 -15 -11 -16
-14 -14 0 -3 -12 -15 -10 -16
-13 -14 1 -2 -11 -14 -9 -17
-12 -13 1 -2 -11 -14 -9 -17
-12 -13 1 -2 -11 -14 -9 -17
-11 -12 0 -3 -10 -14 -9 -17
-10 -11 0 -3 -10 -14 -9 -17
-9 -10 -2 -4 -9 -13 -10 -16
-9 -9 -2 -2 -8 -12 -9 -15
-9 -8 0 0 -6 -11 -8 -14
-9 -7 0 2 -5 -10 -7 -13
-9 -6 1 3 -4 -8 -6 -12
-9 -5 2 5 -2 -7 -5 -11
-8 -5 2 5 -2 -7 -5 -11
-8 -5 1 5 -2 -7 -4 -11
-7 -5 1 5 -2 -6 -4 -11
-6 -5 0 5 -2 -6 -3 -11
-5 -6 -2 5 -2 -5 -2 -11
-5 -4 -2 6 0 -4 0 -10
-4 -3 -2 7 1 -2 1 -10
-4 0 -2 8 2 0 2 -9
-3 1 -2 10 4 1 3 -8
-2 3 0 11 5 3 4 -7
-2 4 0 11 6 3 5 -7
-2 4 -2 11 6 3 5 -6
0 5 -2 12 7 3 6 -6
0 6 -3 12 8 3 7 -5
1 7 -4 13 9 4 8 -4
3 10 -3 14 11 7 10 -2
5 13 -2 16 13 10 12 1
6 16 0 17 16 13 14 3
8 18 1 18 18 16 16 5
10 21 2 20 20 19 18 7
11 21 1 20 20 20 18 7
12 21 0 20 20 20 18 8
13 22 -2 20 21 21 19 8
15 22 -4 20 21 22 19 9
16 23 -5 21 22 23 20 10
17 24 -6 21 22 23 20 10
18 25 -6 21 22 23 20 10
19 26 -7 21 22 23 20 10
21 27 -8 21 22 23 20 10
22 28 -9 20 22 23 20 11
24 31 -9 21 24 25 23 14
26 33 -8 23 26 27 25 16
27 36 -8 24 27 30 28 19
29 39 -7 25 29 32 31 22
31 42 -6 27 31 34 33 24
31 42 -6 27 31 34 33 24
32 42 -6 27 32 34 33 24
32 42 -7 28 33 34 33 25
33 42 -7 28 34 34 33 25
34 42 -8 29 35 35 34 26
34 42 -8 29 35 35 34 26
34 40 -8 29 34 35 34 26
34 40 -8 29 33 35 34 26
34 39 -8 29 32 35 34 26
35 38 -9 28 31 35 33 27
35 38 -9 28 31 35 33 27
35 38 -9 28 31 35 33 27
35 39 -8 28 32 35 34 27
35 39 -8 28 32 35 34 27
36 40 -7 28 33 35 35 28
35 39 -7 28 33 35 34 27
33 37 -6 28 32 34 33 26
31 35 -6 28 32 33 32 25
30 34 -5 28 31 32 30 23
28 32 -4 28 30 31 29 22
28 31 -3 28 30 30 28 21
27 29 0 28 29 28 26 19
26 27 2 28 28 27 25 17
25 26 3 28 27 26 24 16
24 24 5 27 26 24 22 14
23 24 6 27 26 23 21 13
21 23 8 27 25 22 20 12
20 22 9 27 25 21 19 11
19 21 10 27 24 19 18 9
17 20 12 27 23 18 17 8
14 17 12 26 22 17 16 7
11 14 12 25 20 15 14 5
8 11 12 24 18 14 12 3
6 8 12 23 17 13 11 2
3 5 12 22 15 11 9 0
3 4 12 20 13 9 7 -3
2 2 12 19 11 6 5 -4
1 0 11 17 8 4 3 -6
0 -2 11 15 6 1 1 -8
-2 -4 10 13 4 -2 -2 -10
-2 -4 10 12 4 -2 -2 -10
-3 -4 10 11 3 -2 -2 -11
-3 -4 10 10 3 -3 -3 -11
-4 -4 10 9 2 -3 -3 -12
-5 -4 9 8 1 -4 -4 -13
-5 -5 9 7 0 -5 -4 -13
-5 -6 8 6 -2 -6 -5 -13
-5 -7 8 5 -3 -7 -6 -14
-5 -9 7 3 -5 -8 -7 -14
-6 -10 6 2 -6 -9 -8 -15
-6 -10 6 2 -6 -9 -8 -15
-6 -10 6 1 -6 -9 -8 -15
-7 -10 5 1 -7 -10 -8 -16
-7 -10 5 0 -7 -10 -8 -16
-8 -11 4 -2 -8 -11 -8 -17
-9 -12 4 -2 -8 -11 -8 -17
-10 -14 4 -2 -9 -12 -9 -17
-11 -16 4 -3 -10 -13 -9 -18
-12 -17 4 -3 -11 -14 -10 -18
-13 -19 3 -4 -12 -15 -11 -19
-12 -18 3 -4 -12 -15 -11 -19
-11 -17 3 -4 -11 -15 -11 -19
-10 -16 3 -4 -11 -14 -11 -19
-8 -14 3 -4 -10 -14 -11 -19
-7 -13 3 -4 -9 -13 -11 -18
-7 -13 3 -4 -9 -13 -11 -18
-8 -13 4 -3 -9 -13 -10 -17
-9 -13 4 -3 -8 -12 -10 -17
-10 -13 5 -2 -8 -12 -9 -16
-11 -12 6 0 -7 -11 -8 -15
-11 -13 6 0 -7 -11 -8 -15
-12 -14 6 0 -7 -11 -8 -15
-13 -15 6 0 -7 -11 -9 -16
-14 -17 6 0 -7 -11 -9 -16
-15 -18 5 0 -8 -11 -10 -17
-15 -18 5 0 -8 -11 -10 -17
-15 -18 5 0 -8 -11 -10 -17
-15 -18 5 -2 -8 -11 -10 -17
-15 -18 5 -2 -8 -11 -10 -17
-14 -18 5 -3 -8 -12 -10 -17
-14 -17 5 -3 -8 -12 -10 -17
-14 -16 5 -3 -8 -12 -10 -17
-14 -15 6 -2 -8 -12 -10 -17
-14 -14 6 -2 -8 -12 -10 -17
-13 -13 7 0 -7 -13 -10 -16
-14 -13 7 -2 -8 -13 -10 -16
-15 -14 6 -3 -9 -14 -11 -16
-16 -14 5 -4 -10 -14 -11 -16
-18 -15 4 -6 -11 -15 -12 -16
-19 -16 3 -7 -12 -16 -13 -16
-17 -15 3 -7 -12 -16 -13 -16
-16 -14 4 -7 -12 -15 -12 -16
-14 -13 4 -6 -12 -15 -11 -15
-12 -11 5 -6 -12 -14 -10 -15
-10 -10 6 -5 -11 -13 -9 -14
-11 -11 6 -5 -11 -13 -9 -14
-12 -12 6 -5 -11 -13 -9 -14
-13 -13 6 -5 -11 -13 -10 -15
-15 -14 6 -5 -11 -13 -10 -15
-16 -15 5 -6 -11 -14 -11 -16
-16 -15 5 -6 -11 -14 -11 -16
-16 -15 5 -6 -11 -14 -11 -16
-16 -16 5 -6 -11 -14 -11 -15
-16 -16 5 -6 -11 -14 -11 -15
-15 -17 6 -6 -11 -13 -12 -14
-14 -16 6 -6 -11 -13 -12 -13
-13 -14 6 -6 -11 -12 -11 -11
-12 -12 6 -5 -10 -12 -11 -9
-11 -11 6 -5 -10 -11 -10 -8
-10 -9 7 -4 -9 -10 -9 -6
-11 -9 8 -4 -9 -10 -9 -6
-12 -9 9 -4 -9 -10 -9 -6
-13 -9 10 -3 -9 -10 -8 -6
-14 -9 11 -3 -9 -10 -8 -6
-16 -8 12 -2 -8 -10 -7 -5
-13 -4 12 -2 -8 -9 -7 -5
-11 1 13 0 -7 -8 -6 -4
-8 4 13 1 -6 -7 -5 -3
-6 8 14 2 -5 -6 -4 -2
-3 12 15 3 -4 -5 -3 0
-3 12 13 1 -4 -5 -3 0
-2 12 11 0 -5 -6 -3 0
-2 11 9 -3 -6 -6 -2 0
0 11 6 -5 -7 -7 -2 0
1 10 4 -7 -8 -8 0 0
1 10 4 -7 -8 -8 0 0
1 9 4 -7 -7 -7 0 1
2 8 4 -7 -6 -6 1 1
2 7 4 -7 -5 -5 1 2
3 6 4 -6 -4 -4 2 3
3 6 4 -6 -4 -4 1 2
3 6 3 -6 -5 -5 0 1
4 6 3 -6 -5 -6 -2 0
4 6 2 -6 -6 -7 -3 -2
5 5 1 -7 -7 -8 -4 -4
2 0 1 -9 -9 -10 -6 -6
-3 -5 0 -10 -12 -12 -9 -8
-6 -9 -2 -12 -15 -14 -11 -10
-10 -14 -3 -14 -17 -16 -13 -12
-13 -18 -4 -16 -20 -18 -16 -14
-14 -19 -4 -16 -20 -18 -16 -15
-15 -20 -4 -17 -20 -19 -17 -16
-16 -22 -4 -17 -21 -19 -18 -17
-17 -23 -4 -18 -21 -20 -19 -18
-19 -25 -3 -19 -22 -21 -20 -19
-19 -24 -3 -19 -22 -21 -20 -19
-18 -23 -3 -19 -22 -21 -20 -19
-18 -22 -3 -19 -22 -22 -20 -19
-17 -21 -3 -19 -22 -22 -20 -19
-16 -20 -3 -20 -22 -23 -20 -19
-16 -20 -3 -20 -22 -23 -20 -19
-17 -21 -3 -20 -22 -23 -20 -19
-18 -22 -3 -20 -23 -23 -20 -20
-19 -23 -3 -20 -23 -23 -20 -20
-20 -24 -4 -20 -24 -22 -21 -21
-20 -24 -4 -20 -24 -22 -21 -21
-20 -24 -4 -20 -24 -22 -21 -21
-20 -25 -4 -21 -24 -23 -21 -21
-20 -25 -4 -21 -24 -23 -21 -21
-19 -26 -4 -22 -23 -24 -22 -21
-19 -26 -4 -22 -23 -24 -22 -21
-19 -25 -4 -22 -23 -24 -22 -21
-19 -25 -4 -22 -24 -24 -22 -21
-19 -24 -4 -22 -24 -24 -22 -21
-18 -23 -4 -21 -25 -25 -22 -21
-18 -23 -2 -21 -24 -25 -22 -21
-18 -23 0 -21 -22 -25 -22 -21
-18 -23 2 -21 -21 -24 -21 -21
-18 -23 4 -21 -19 -24 -21 -21
-18 -23 7 -21 -16 -23 -20 -22
-25 -16 22 -4 -6 -14 -14 -18
-32 -9 37 14 6 -6 -9 -15
-39 -2 53 30 16 3 -3 -11
-47 5 67 48 27 11 4 -8
-53 12 81 64 38 20 9 -4
-43 18 85 76 51 31 17 4
-31 24 88 90 63 44 25 11
-21 30 91 102 75 56 33 18
-10 36 94 114 89 67 42 25
3 45 96 127 101 80 51 34
26 67 78 127 113 100 71 57
49 90 62 126 126 119 92 80
72 112 46 125 138 140 112 104
96 135 28 123 150 159 133 127
117 155 11 119 158 176 151 148
127 150 -19 79 127 148 131 142
136 145 -48 40 94 120 110 136
144 139 -77 2 61 93 91 130
153 134 -106 -37 28 66 70 123
159 127 -133 -74 -4 38 51 115
133 97 -129 -94 -29 11 29 87
105 68 -124 -112 -54 -17 9 58
78 38 -120 -132 -79 -44 -12 29
51 9 -115 -151 -105 -71 -32 2
26 -18 -110 -168 -129 -97 -52 -25
17 -23 -100 -151 -117 -91 -52 -28
8 -27 -89 -135 -107 -85 -51 -32
-2 -32 -77 -119 -96 -77 -50 -35
-11 -36 -66 -103 -86 -71 -49 -38
-20 -41 -56 -88 -75 -65 -48 -43
-20 -39 -48 -76 -67 -59 -45 -40
-20 -37 -39 -65 -58 -52 -40 -37
-20 -35 -31 -55 -50 -46 -36 -35
-20 -33 -23 -44 -41 -38 -33 -33
-20 -31 -15 -33 -33 -32 -29 -30
-21 -31 -15 -32 -32 -31 -29 -30
-22 -31 -14 -31 -31 -30 -29 -29
-23 -31 -14 -29 -30 -29 -28 -29
-24 -31 -13 -28 -29 -28 -28 -28
-25 -30 -12 -26 -28 -27 -27 -27
-23 -28 -10 -25 -27 -26 -26 -26
-21 -26 -8 -23 -26 -25 -25 -25
-19 -23 -6 -22 -24 -24 -24 -24
-17 -21 -4 -20 -23 -23 -23 -23
-14 -18 -2 -18 -21 -21 -21 -21
-14 -18 -2 -18 -21 -21 -21 -21
-15 -18 -2 -18 -21 -21 -20 -21
-15 -19 -2 -17 -20 -21 -20 -21
-16 -19 -2 -17 -20 -21 -19 -21
-17 -20 0 -16 -19 -20 -18 -20
-17 -20 0 -16 -19 -20 -18 -20
-18 -21 0 -16 -19 -20 -18 -20
-19 -22 -2 -16 -19 -20 -19 -20
-20 -23 -2 -16 -19 -20 -19 -20
-21 -24 -3 -16 -20 -21 -20 -21
-21 -24 -3 -15 -20 -20 -20 -21
-20 -24 -3 -14 -19 -19 -20 -21
-19 -24 -2 -13 -18 -18 -20 -21
-18 -24 -2 -12 -17 -17 -20 -21
-17 -23 0 -10 -16 -16 -19 -20
-16 -22 0 -10 -16 -16 -19 -20
-15 -21 0 -10 -16 -16 -18 -19
-14 -20 1 -10 -15 -15 -17 -18
-13 -19 1 -10 -15 -15 -16 -17
-12 -17 2 -9 -14 -14 -15 -16
-13 -17 2 -9 -14 -14 -15 -16
-14 -17 1 -9 -14 -14 -15 -16
-15 -17 1 -9 -14 -14 -15 -16
-16 -17 0 -9 -14 -14 -15 -16
-17 -17 -2 -9 -14 -13 -14 -16
-16 -17 0 -8 -13 -13 -14 -16
-14 -16 1 -7 -12 -13 -13 -15
-13 -16 2 -6 -11 -12 -12 -14
-11 -15 3 -5 -10 -12 -11 -13
-9 -14 4 -4 -8 -11 -10 -12
-10 -14 4 -4 -8 -11 -10 -12
-11 -14 4 -4 -8 -11 -10 -12
-13 -14 4 -3 -7 -10 -10 -12
-14 -14 4 -3 -7 -10 -10 -12
-16 -13 3 -2 -6 -9 -10 -11
-15 -12 3 -2 -6 -9 -10 -11
-14 -11 3 -2 -5 -8 -9 -10
-13 -10 2 0 -5 -8 -9 -10
-12 -9 2 0 -4 -7 -8 -9
-10 -8 1 1 -3 -6 -7 -8
-10 -8 1 2 -3 -5 -7 -8
-10 -8 1 3 -2 -4 -6 -7
-10 -7 0 4 0 -3 -6 -7
-10 -7 0 5 1 -2 -5 -6
-11 -6 -2 6 2 1 -4 -5
-9 -5 -2 7 3 2 -3 -4
-6 -4 0 8 4 4 0 -2
-4 -2 0 9 5 5 1 0
0 0 1 10 6 7 3 2
3 2 2 12 7 9 5 4
3 4 2 13 9 10 6 5
3 6 2 14 11 12 8 7
3 8 2 15 13 13 10 9
3 10 2 16 15 15 12 11
3 13 3 17 17 17 14 13
3 13 3 18 18 18 15 14
4 14 3 19 19 19 16 15
4 15 3 20 21 21 17 17
5 16 3 21 22 22 18 18
6 17 2 22 24 24 20 20
8 18 2 22 24 25 20 20
10 19 1 23 25 26 20 21
12 20 0 23 25 27 21 21
14 21 -2 24 26 28 21 22
16 22 -3 25 27 30 22 23
16 24 -3 25 28 30 23 25
17 26 -3 25 29 31 24 27
17 28 -4 25 30 32 26 29
18 30 -4 25 31 33 27 31
19 33 -5 24 32 34 29 33
20 33 -5 25 32 35 30 34
21 34 -5 26 33 36 31 35
23 35 -5 27 34 37 32 37
24 36 -5 28 35 38 33 38
26 37 -4 29 36 39 35 40
26 37 -4 29 36 39 35 42
26 37 -4 29 36 39 35 44
27 37 -4 28 36 39 35 46
27 37 -4 28 36 39 35 48
28 38 -4 27 35 38 34 50
28 38 -4 27 35 38 34 50
28 38 -4 27 35 38 34 50
29 38 -4 27 35 39 35 50
29 38 -4 27 35 39 35 50
30 39 -3 28 36 40 36 51
30 38 -3 28 36 40 36 51
29 37 -2 28 35 39 36 51
29 35 -2 28 34 39 35 51
28 34 0 28 33 38 35 51
27 32 1 27 32 37 34 51
25 30 2 27 32 35 32 50
23 28 3 27 31 33 30 49
20 25 4 27 31 31 28 48
18 23 5 27 30 29 26 47
15 20 7 27 29 27 23 46
13 18 7 26 28 26 22 45
11 16 7 26 26 24 20 44
8 13 8 25 24 22 18 42
6 11 8 24 22 20 16 40
4 9 8 23 21 19 15 39
3 8 10 22 20 18 14 36
4 9 12 22 19 17 13 34
5 9 13 22 19 16 13 31
6 10 15 22 18 15 12 29
6 10 16 22 18 15 12 27
5 8 17 20 15 12 10 24
2 5 17 18 13 10 8 22
-2 2 17 16 10 8 6 20
-5 -2 17 14 8 6 4 18
-7 -5 17 12 6 4 3 16
-8 -6 16 11 5 3 2 14
-7 -6 15 10 4 2 1 13
-7 -6 15 9 4 1 0 12
-6 -6 14 8 3 0 -2 11
-6 -6 14 8 3 0 -2 10
-5 -7 13 6 2 -2 -4 8
-5 -8 12 5 1 -3 -5 6
-6 -10 11 4 0 -4 -7 4
-6 -11 10 3 -2 -5 -8 2
-6 -12 9 2 -3 -6 -9 1
-8 -13 8 1 -4 -7 -10 0
-9 -14 8 0 -5 -7 -10 0
-10 -15 7 -2 -5 -8 -9 0
-11 -16 7 -3 -6 -8 -9 0
-12 -16 7 -3 -6 -8 -9 0
-13 -17 6 -4 -7 -9 -8 0
-13 -17 6 -4 -7 -9 -8 -2
-13 -17 6 -4 -7 -9 -8 -2
-13 -17 6 -4 -7 -9 -8 -3
-13 -17 6 -4 -7 -9 -8 -3
-12 -17 6 -5 -7 -10 -8 -4
-11 -16 6 -5 -7 -10 -8 -4
-11 -15 6 -5 -7 -9 -8 -4
-10 -14 6 -5 -7 -9 -8 -4
-10 -14 6 -5 -7 -9 -8 -4
-9 -13 6 -4 -6 -8 -7 -5
-9 -13 6 -4 -6 -8 -8 -5
-10 -13 6 -3 -6 -9 -9 -5
-10 -13 6 -3 -6 -9 -10 -5
-10 -13 6 -3 -6 -9 -10 -5
-11 -13 5 -2 -7 -10 -11 -6
-11 -14 6 -2 -7 -10 -11 -6
-11 -14 6 -2 -7 -10 -11 -6
-11 -15 7 -2 -7 -10 -11 -6
-11 -15 7 -2 -7 -10 -11 -6
-12 -16 8 -3 -6 -11 -10 -7
-12 -16 7 -4 -6 -11 -10 -7
-12 -15 6 -4 -6 -11 -10 -7
-12 -15 5 -5 -6 -11 -10 -7
-12 -15 5 -5 -6 -11 -10 -7
-13 -15 4 -6 -7 -12 -10 -8
-14 -16 4 -6 -7 -12 -10 -9
-14 -17 4 -6 -7 -13 -11 -9
-15 -18 4 -6 -7 -13 -11 -10
-15 -19 4 -6 -7 -13 -11 -10
-16 -20 5 -5 -8 -14 -12 -11
-15 -19 6 -5 -8 -14 -11 -11
-14 -18 6 -5 -7 -13 -11 -10
-13 -17 7 -5 -7 -13 -10 -10
-13 -16 7 -5 -7 -13 -10 -10
-12 -15 8 -5 -6 -12 -9 -9
-12 -14 8 -5 -6 -11 -9 -9
-12 -13 8 -5 -5 -10 -9 -9
-12 -12 8 -5 -5 -9 -9 -9
-12 -12 8 -5 -5 -9 -9 -9
-13 -11 9 -4 -4 -8 -8 -9
-13 -12 9 -4 -5 -9 -9 -9
-13 -12 8 -5 -6 -9 -9 -9
-13 -13 8 -5 -7 -10 -10 -9
-13 -13 8 -5 -7 -10 -10 -9
-13 -14 7 -6 -8 -11 -11 -9
-14 -15 7 -6 -8 -11 -11 -9
-15 -16 7 -6 -8 -11 -11 -9
-16 -17 7 -6 -8 -11 -11 -9
-16 -17 7 -6 -8 -11 -11 -9
-16 -16 8 -6 -8 -11 -11 -10
-15 -14 9 -6 -8 -11 -10 -10
-13 -11 11 -6 -8 -11 -9 -9
-12 -9 12 -6 -8 -11 -8 -9
-11 -7 13 -6 -8 -11 -7 -9
-10 -6 14 -6 -8 -11 -6 -8
-9 -5 14 -5 -7 -10 -6 -7
-9 -5 14 -4 -7 -9 -6 -6
-8 -4 14 -3 -6 -8 -6 -5
-8 -4 14 -2 -6 -8 -6 -5
-7 -2 14 0 -5 -7 -6 -4
-7 1 14 0 -4 -6 -5 -3
-7 2 15 0 -3 -5 -4 -2
-7 4 15 0 -2 -4 -3 0
-7 5 15 0 0 -3 -3 0
-7 7 15 1 1 -2 -2 1
-6 8 14 0 0 -2 0 1
-5 9 12 -2 -2 -2 0 1
-4 10 11 -3 -3 -2 1 1
-3 11 10 -3 -3 -2 1 1
0 12 9 -4 -4 -3 2 2
2 12 9 -4 -4 -3 2 2
3 12 9 -4 -4 -3 2 2
5 12 9 -4 -4 -3 2 2
6 12 9 -4 -4 -3 2 2
7 12 8 -5 -4 -4 1 2
7 11 7 -5 -4 -4 1 2
7 10 7 -4 -4 -4 1 2
7 9 6 -4 -4 -4 1 2
7 9 6 -4 -4 -4 1 2
5 5 4 -4 -4 -4 -2 2
2 1 3 -6 -6 -6 -4 0
-2 -4 2 -8 -8 -8 -5 -3
-6 -8 1 -10 -10 -10 -7 -5
-9 -12 0 -12 -12 -11 -8 -7
-11 -13 -2 -13 -13 -13 -10 -9
-12 -14 -2 -13 -14 -14 -12 -11
-13 -15 -2 -13 -14 -16 -14 -13
-14 -16 -2 -13 -15 -17 -16 -15
-15 -16 -2 -13 -15 -18 -17 -16
-16 -17 -2 -13 -16 -19 -18 -17
-16 -18 -2 -14 -17 -19 -18 -17
-16 -19 -2 -15 -18 -20 -18 -17
-16 -20 -2 -16 -19 -20 -18 -17
-16 -20 -2 -16 -19 -20 -18 -17
-15 -21 -3 -17 -20 -21 -17 -17
-16 -21 -3 -17 -20 -21 -18 -18
-16 -22 -3 -18 -20 -22 -18 -18
-17 -22 -3 -18 -20 -22 -19 -19
-17 -22 -3 -18 -20 -22 -19 -19
-18 -23 -4 -19 -21 -23 -20 -20
-18 -23 -4 -19 -21 -23 -20 -20
-18 -23 -4 -19 -21 -23 -20 -20
-18 -23 -4 -19 -21 -23 -20 -20
-18 -23 -4 -19 -21 -23 -20 -20
-17 -23 -4 -20 -22 -23 -20 -20
-16 -22 -4 -20 -21 -23 -20 -20
-15 -22 -4 -20 -21 -23 -19 -20
-14 -21 -4 -20 -20 -23 -19 -20
-13 -21 -4 -20 -20 -23 -19 -20
-13 -20 -4 -19 -19 -22 -18 -19
-14 -21 -3 -19 -19 -22 -18 -19
-16 -22 -2 -18 -19 -22 -18 -19
-17 -23 0 -18 -19 -22 -18 -19
-18 -23 1 -18 -19 -22 -18 -19
-22 -20 14 -6 -11 -17 -16 -19
-27 -14 29 8 -2 -11 -12 -17
-31 -8 45 21 8 -6 -9 -15
-36 -3 59 34 17 0 -5 -14
-40 4 74 48 25 6 0 -12
-37 10 82 63 39 18 8 -5
-31 16 90 79 55 30 17 3
-25 22 97 96 69 44 25 10
-20 28 104 112 84 56 34 17
-14 34 112 129 99 69 43 24
7 56 99 131 113 91 64 46
30 79 81 132 129 112 86 70
53 104 64 133 143 135 108 94
76 128 47 134 157 157 131 118
100 152 30 135 173 180 153 143
112 154 0 106 154 175 153 146
123 152 -32 71 131 164 149 146
136 150 -63 36 107 154 144 146
147 148 -95 2 84 145 140 146
158 146 -127 -33 60 135 136 146
140 119 -133 -64 23 94 105 120
116 90 -134 -95 -15 48 71 90
92 60 -135 -126 -53 2 36 59
68 30 -136 -156 -91 -45 3 28
45 1 -137 -186 -129 -90 -32 -3
30 -10 -126 -177 -127 -94 -39 -13
18 -18 -111 -158 -115 -89 -43 -19
6 -26 -97 -141 -105 -85 -46 -26
-8 -34 -82 -123 -94 -80 -48 -32
-20 -43 -68 -106 -83 -75 -51 -39
-22 -43 -58 -93 -73 -68 -48 -38
-23 -39 -48 -79 -63 -60 -43 -35
-23 -35 -37 -66 -53 -52 -37 -32
-24 -32 -28 -54 -44 -44 -32 -30
-24 -29 -18 -40 -33 -36 -27 -27
-24 -28 -14 -36 -29 -33 -26 -26
-23 -28 -12 -33 -27 -31 -25 -26
-22 -28 -10 -30 -25 -29 -25 -25
-20 -28 -7 -27 -22 -28 -24 -25
-19 -28 -5 -24 -20 -26 -24 -25
-18 -28 -4 -23 -19 -25 -23 -24
-17 -26 -4 -23 -19 -25 -22 -23
-17 -24 -4 -23 -19 -24 -22 -22
-16 -23 -4 -23 -19 -24 -21 -21
-16 -21 -4 -23 -19 -24 -21 -21
-15 -20 -4 -22 -18 -23 -20 -20
-15 -20 -3 -22 -18 -23 -20 -20
-16 -20 -3 -21 -18 -22 -20 -20
-16 -20 -2 -21 -18 -22 -20 -20
-16 -20 -2 -21 -18 -22 -20 -20
-17 -20 0 -20 -18 -21 -20 -21
-16 -20 0 -20 -18 -21 -19 -20
-15 -20 1 -19 -17 -21 -19 -20
-14 -20 1 -19 -17 -21 -18 -19
-14 -20 1 -19 -17 -21 -18 -19
-13 -21 2 -18 -16 -21 -17 -18
-14 -21 2 -18 -16 -21 -17 -18
-14 -20 2 -18 -15 -20 -17 -18
-15 -20 2 -18 -15 -20 -17 -18
-15 -20 2 -18 -15 -20 -17 -18
-16 -19 3 -17 -14 -19 -16 -19
-16 -18 4 -16 -13 -18 -15 -18
-15 -17 4 -16 -13 -18 -15 -17
-15 -16 5 -15 -12 -17 -14 -16
-15 -16 5 -15 -12 -17 -14 -16
-14 -15 6 -14 -11 -16 -13 -15
-14 -15 5 -14 -11 -16 -13 -15
-13 -15 4 -14 -11 -16 -13 -15
-13 -15 3 -14 -11 -16 -13 -15
-13 -15 3 -14 -11 -16 -13 -15
-12 -16 2 -13 -11 -16 -14 -16
-12 -15 2 -13 -10 -15 -14 -16
-13 -14 2 -13 -10 -15 -13 -15
-13 -13 2 -13 -9 -14 -13 -15
-13 -13 2 -13 -9 -14 -13 -15
-14 -12 3 -12 -8 -13 -12 -14
-14 -12 3 -11 -7 -12 -11 -13
-14 -12 4 -10 -7 -11 -10 -12
-14 -12 4 -9 -6 -10 -9 -11
-14 -12 4 -9 -6 -10 -9 -11
-15 -13 5 -8 -5 -9 -8 -10
-15 -12 5 -8 -4 -8 -8 -10
-14 -12 5 -7 -4 -8 -7 -10
-14 -11 5 -7 -3 -7 -7 -10
-14 -11 5 -7 -3 -7 -7 -10
-11 -8 4 -5 -2 -5 -6 -9
-9 -6 4 -4 0 -3 -5 -8
-6 -3 5 -2 1 0 -4 -8
-4 0 5 1 2 1 -3 -7
0 3 5 2 2 3 -3 -7
1 4 6 3 3 4 -2 -6
0 4 6 3 4 4 0 -5
-2 3 6 4 5 5 0 -4
-3 3 6 4 6 5 1 -3
-4 3 6 4 7 5 1 -2
-5 2 7 6 9 7 3 1
-4 3 7 7 10 8 4 2
-3 4 7 8 11 9 6 3
-2 5 7 10 13 11 8 5
-2 5 7 11 14 12 9 6
2 8 6 12 16 14 11 8
5 12 6 13 18 16 13 10
7 16 6 14 21 19 15 12
10 19 6 15 23 21 17 14
13 23 6 16 25 23 19 16
14 24 5 17 26 25 21 17
14 25 5 18 28 26 22 19
15 26 5 19 29 28 23 20
15 27 5 20 30 30 25 21
15 28 5 21 31 31 26 22
16 29 5 22 33 33 27 24
16 30 5 23 34 34 28 25
16 31 6 24 35 35 29 27
16 32 6 25 37 37 30 29
16 33 6 26 38 38 31 30
17 34 7 27 39 39 32 31
19 35 6 27 39 40 33 32
20 35 6 27 39 40 34 32
21 36 5 27 39 42 35 33
22 36 5 27 39 42 35 33
23 37 4 28 39 43 36 34
24 38 4 28 39 43 36 34
25 38 4 28 39 43 36 34
26 39 4 28 39 43 36 34
26 39 4 28 39 43 36 34
27 40 5 27 40 43 36 35
27 40 5 27 40 43 36 35
27 39 5 27 40 43 36 35
27 39 5 27 40 43 36 35
27 39 5 27 40 43 36 35
26 38 4 26 39 42 36 34
26 37 4 26 38 40 36 34
26 37 5 25 38 40 36 34
26 36 5 25 37 39 36 34
26 36 5 25 37 39 36 34
24 34 7 24 36 38 35 32
23 33 9 25 35 37 34 31
22 32 12 26 35 36 33 30
20 30 14 27 34 35 32 28
19 29 16 27 34 34 31 27
17 26 17 27 32 32 28 25
16 24 17 26 30 29 26 22
14 21 17 25 27 27 23 20
12 18 17 23 25 24 21 17
11 15 17 22 23 22 18 15
9 14 18 21 22 20 17 14
8 13 19 20 21 19 15 13
7 12 20 20 20 18 14 12
5 11 21 19 19 16 13 11
4 10 21 19 18 15 12 10
3 7 22 17 16 13 10 8
1 5 21 15 13 10 8 6
0 2 20 13 11 8 6 3
-2 -2 19 11 8 5 4 1
-3 -5 18 9 6 3 2 -2
-4 -6 17 7 5 2 1 -3
-6 -6 17 6 3 0 0 -4
-7 -7 17 5 2 -2 -2 -4
-8 -7 17 3 1 -3 -3 -5
-9 -7 17 2 0 -4 -4 -5
-10 -8 15 0 -3 -5 -5 -6
-10 -10 14 -2 -4 -6 -6 -7
-10 -11 13 -4 -5 -7 -6 -7
-10 -12 11 -6 -7 -8 -7 -8
-10 -13 10 -7 -8 -9 -7 -8
-9 -14 9 -8 -9 -10 -8 -9
-9 -14 9 -8 -9 -10 -8 -10
-10 -14 8 -8 -9 -11 -9 -11
-10 -14 8 -8 -9 -11 -9 -11
-10 -14 8 -8 -9 -11 -9 -12
-11 -15 7 -9 -10 -12 -10 -13
-11 -15 7 -9 -10 -12 -10 -13
-11 -15 7 -9 -10 -12 -10 -13
-11 -15 7 -9 -10 -12 -10 -13
-11 -15 7 -9 -10 -12 -10 -13
-10 -14 7 -9 -11 -13 -9 -12
-11 -14 7 -9 -11 -13 -9 -12
-12 -15 7 -9 -10 -13 -9 -12
-12 -15 7 -9 -10 -13 -9 -12
-13 -15 7 -9 -10 -13 -9 -12
-14 -16 6 -8 -9 -12 -10 -12
-14 -16 6 -8 -9 -12 -10 -12
-14 -16 6 -8 -10 -12 -10 -12
-14 -16 6 -8 -10 -12 -10 -12
-14 -16 6 -8 -10 -12 -10 -12
-14 -17 6 -9 -11 -13 -10 -11
-12 -16 6 -9 -11 -13 -10 -11
-11 -15 6 -8 -10 -12 -10 -12
-10 -15 6 -8 -10 -12 -10 -12
-9 -14 6 -8 -10 -12 -10 -12
-8 -13 6 -7 -9 -11 -10 -13
-8 -13 7 -7 -9 -11 -10 -13
-9 -13 8 -7 -9 -11 -10 -12
-9 -13 8 -7 -9 -11 -10 -12
-9 -13 9 -7 -9 -11 -10 -12
-10 -12 10 -6 -8 -11 -9 -11
-11 -13 10 -6 -8 -11 -9 -11
-12 -14 10 -6 -8 -11 -9 -12
-12 -14 10 -6 -8 -11 -9 -12
-13 -15 10 -6 -8 -11 -9 -12
-14 -16 9 -5 -8 -11 -10 -13
-14 -16 9 -5 -8 -11 -10 -13
-14 -16 9 -5 -8 -11 -10 -12
-14 -16 9 -5 -8 -11 -10 -12
-14 -16 9 -5 -8 -11 -10 -12
-15 -16 8 -5 -8 -11 -10 -11
-15 -16 8 -5 -9 -12 -10 -12
-15 -15 8 -6 -9 -12 -11 -12
-15 -15 8 -6 -10 -13 -11 -13
-15 -15 8 -6 -10 -13 -11 -13
-14 -14 7 -7 -11 -14 -12 -14
-14 -14 7 -8 -11 -14 -12 -14
-14 -15 6 -8 -11 -14 -12 -14
-14 -15 6 -9 -11 -14 -12 -14
-14 -15 6 -9 -11 -14 -12 -14
-14 -16 5 -10 -12 -15 -13 -15
-14 -16 5 -10 -12 -15 -13 -15
-14 -16 6 -10 -12 -15 -13 -15
-14 -16 6 -10 -12 -15 -13 -15
-14 -16 6 -10 -12 -15 -13 -15
-14 -16 7 -10 -12 -14 -12 -16
-16 -16 7 -10 -12 -14 -12 -16
-17 -16 6 -10 -12 -14 -12 -16
-18 -16 6 -10 -12 -14 -12 -16
-19 -16 6 -10 -12 -14 -12 -16
-19 -15 6 -9 -13 -14 -12 -15
-17 -11 7 -7 -11 -12 -10 -14
-15 -8 9 -6 -10 -11 -9 -12
-12 -4 10 -4 -8 -10 -7 -11
-10 0 12 -2 -7 -9 -5 -9
-9 2 13 0 -6 -8 -4 -8
-8 2 13 0 -6 -8 -4 -8
-8 1 13 0 -6 -8 -4 -8
-7 1 13 0 -6 -8 -4 -8
-7 1 13 0 -6 -8 -4 -8
-6 1 13 -2 -7 -7 -4 -8
-6 4 13 0 -5 -6 -4 -6
-6 7 13 1 -4 -5 -3 -5
-6 10 13 1 -3 -5 -3 -3
-6 13 13 2 -2 -4 -3 -2
-5 14 13 3 0 -3 -2 0
-4 13 12 1 -3 -3 -2 0
-4 13 10 0 -4 -4 -2 -2
-3 12 9 -2 -5 -4 -2 -2
-3 12 7 -3 -6 -4 -2 -2
0 11 6 -4 -7 -5 -2 -3
2 11 5 -3 -6 -5 -2 -2
3 11 5 -3 -5 -4 0 -2
5 11 4 -2 -4 -4 0 0
7 11 4 -2 -3 -4 0 0
8 9 3 0 -3 -3 0 1
6 7 2 -2 -4 -5 -2 -2
5 5 2 -2 -6 -6 -4 -3
4 3 1 -3 -7 -8 -5 -4
3 1 1 -3 -9 -9 -7 -5
0 -3 0 -5 -11 -11 -8 -7
-4 -7 -2 -7 -13 -13 -10 -9
-7 -11 -2 -9 -14 -15 -11 -11
-10 -14 -3 -12 -16 -17 -12 -13
-13 -18 -3 -14 -18 -19 -13 -15
-15 -20 -4 -15 -19 -20 -14 -16
-16 -20 -4 -15 -19 -20 -15 -16
-17 -21 -4 -15 -20 -20 -16 -17
-17 -21 -4 -15 -20 -20 -16 -17
-18 -21 -4 -15 -20 -20 -17 -17
-19 -22 -5 -16 -21 -21 -18 -18
-19 -22 -5 -16 -21 -21 -18 -18
-18 -22 -5 -16 -21 -21 -18 -18
-18 -22 -5 -16 -21 -21 -18 -18
-18 -22 -5 -16 -21 -21 -18 -18
-17 -23 -4 -17 -21 -21 -19 -19
-17 -23 -4 -17 -21 -21 -19 -19
-17 -22 -4 -17 -21 -21 -19 -18
-17 -22 -4 -17 -21 -21 -19 -18
-17 -22 -4 -17 -21 -21 -19 -18
-16 -21 -3 -16 -22 -22 -19 -17
-16 -21 -3 -16 -22 -22 -19 -17
-16 -20 -3 -15 -21 -21 -18 -17
-16 -20 -3 -15 -20 -20 -18 -17
-16 -20 -3 -15 -20 -20 -18 -17
-17 -19 -2 -14 -19 -19 -17 -16
-17 -19 -2 -14 -19 -19 -17 -16
-16 -19 -2 -15 -20 -20 -18 -16
-16 -19 -2 -15 -20 -21 -18 -16
-16 -19 -2 -15 -20 -21 -18 -16
-16 -20 1 -13 -19 -21 -19 -17
-17 -19 6 -9 -16 -19 -17 -17
-19 -18 11 -4 -12 -17 -16 -16
-20 -17 16 2 -9 -15 -14 -15
-22 -16 21 7 -6 -13 -13 -15
-25 -11 32 19 4 -7 -8 -12
-30 -4 48 34 16 3 -2 -7
-35 5 63 51 27 12 5 -2
-39 12 78 66 39 21 12 3
-45 19 94 82 51 29 18 8
-36 28 99 97 65 44 28 17
-20 39 97 109 79 59 40 30
-4 50 95 121 95 75 53 43
13 60 93 135 109 91 65 55
29 71 91 147 123 107 77 67
51 92 72 144 133 125 95 87
76 117 46 131 138 143 115 110
102 143 18 117 144 161 136 134
127 169 -9 103 149 179 156 157
152 194 -36 90 155 197 177 181
158 183 -60 56 128 175 162 172
153 149 -80 11 81 128 127 142
148 115 -102 -34 35 80 91 112
143 82 -122 -79 -12 33 54 82
137 49 -144 -124 -58 -14 18 53
119 28 -147 -143 -80 -39 -3 33
95 16 -137 -146 -90 -52 -15 19
70 3 -128 -150 -99 -65 -27 6
46 -10 -118 -154 -107 -77 -39 -9
20 -23 -109 -157 -116 -91 -52 -23
7 -29 -97 -147 -112 -90 -55 -28
0 -30 -82 -126 -98 -80 -51 -28
-7 -32 -68 -105 -83 -70 -46 -28
-14 -34 -54 -83 -69 -61 -41 -28
-21 -36 -40 -63 -56 -51 -37 -28
-24 -36 -31 -52 -47 -45 -34 -28
-23 -34 -26 -45 -43 -40 -32 -26
-21 -32 -21 -38 -37 -36 -29 -24
-20 -30 -16 -32 -32 -32 -27 -22
-19 -27 -11 -26 -27 -28 -24 -19
-18 -26 -9 -23 -25 -26 -23 -18
-18 -24 -8 -22 -24 -25 -22 -18
-17 -23 -7 -21 -22 -24 -21 -17
-16 -21 -6 -21 -21 -23 -21 -16
-16 -20 -5 -20 -20 -22 -20 -16
-15 -19 -4 -19 -19 -21 -19 -15
-15 -19 -4 -18 -19 -21 -19 -15
-16 -19 -3 -17 -19 -21 -18 -15
-16 -19 -3 -17 -19 -21 -18 -15
-16 -19 -3 -16 -19 -21 -18 -15
-17 -20 -2 -15 -18 -20 -17 -16
-17 -20 -2 -15 -18 -20 -17 -16
-17 -20 -2 -15 -17 -20 -17 -16
-17 -20 -2 -15 -17 -20 -17 -16
-17 -20 -2 -15 -17 -20 -17 -16
-17 -19 -3 -16 -16 -19 -17 -16
-17 -19 -3 -16 -16 -19 -17 -16
-17 -18 -2 -15 -16 -18 -16 -15
-17 -18 -2 -15 -16 -18 -16 -14
-17 -18 -2 -15 -16 -18 -16 -14
-16 -17 0 -14 -15 -17 -15 -13
-16 -17 0 -14 -15 -17 -15 -13
-15 -16 1 -13 -14 -16 -14 -13
-15 -15 1 -13 -13 -15 -14 -13
-15 -15 1 -13 -13 -15 -14 -13
-14 -14 2 -12 -12 -14 -13 -12
-14 -14 2 -12 -12 -14 -13 -12
-14 -15 2 -11 -12 -14 -13 -12
-14 -15 2 -11 -12 -14 -13 -12
-14 -15 2 -11 -12 -14 -13 -12
-14 -16 3 -10 -12 -14 -13 -12
-14 -14 3 -10 -12 -14 -13 -12
-13 -13 3 -9 -11 -13 -12 -11
-13 -11 3 -9 -10 -12 -12 -11
-13 -10 3 -9 -10 -12 -12 -11
-12 -9 2 -8 -9 -11 -11 -10
-11 -9 2 -8 -9 -11 -11 -10
-10 -8 2 -7 -8 -11 -10 -9
-9 -7 2 -6 -7 -11 -9 -9
-8 -7 2 -6 -7 -11 -9 -9
-7 -6 3 -5 -6 -10 -8 -8
-9 -6 3 -5 -5 -9 -7 -7
-11 -6 3 -4 -4 -8 -6 -6
-12 -6 3 -3 -4 -7 -5 -6
-14 -6 3 -3 -3 -6 -4 -5
-15 -7 3 -2 -2 -5 -3 -4
-13 -6 3 0 0 -4 -3 -4
-11 -5 3 1 1 -3 -2 -4
-10 -4 3 2 1 -3 -2 -4
-8 -3 3 3 2 -2 -2 -4
-7 -2 4 4 3 0 0 -3
-7 0 4 4 4 1 1 -2
-6 1 4 5 5 2 2 1
-6 2 4 5 5 3 2 2
-6 3 4 5 6 4 3 3
-5 4 3 6 8 6 4 4
-4 5 3 8 9 7 6 6
-2 7 4 10 11 9 8 7
0 8 5 11 13 11 9 9
1 9 5 13 15 13 11 10
2 10 6 14 16 14 12 11
3 11 5 14 17 15 13 11
4 13 4 15 19 17 15 12
4 14 4 16 20 18 16 13
5 15 3 16 21 19 17 13
6 16 2 17 22 21 18 15
7 17 2 19 22 22 20 16
8 18 3 21 23 24 21 18
8 19 4 22 24 26 22 20
9 20 4 24 24 28 24 22
11 22 5 25 26 29 25 24
14 25 5 26 28 31 27 26
16 28 5 27 30 33 29 28
19 31 5 28 32 34 30 30
21 34 5 29 35 36 32 32
23 36 4 30 36 37 33 33
24 36 3 30 36 37 33 33
25 36 2 30 36 38 34 34
25 36 2 30 36 38 34 34
26 36 1 30 36 38 34 34
27 36 0 30 37 39 35 35
27 37 0 30 37 39 35 36
28 38 0 30 38 40 36 37
29 39 0 30 39 42 37 37
29 40 0 30 39 42 37 38
30 42 1 31 40 43 38 39
30 42 1 31 40 43 38 39
31 42 1 31 40 43 38 39
32 42 1 31 40 43 38 39
32 42 1 31 40 43 38 39
33 43 2 30 39 43 39 40
33 43 2 30 39 43 39 40
34 43 2 30 39 43 38 39
34 43 2 30 39 43 38 39
34 43 2 30 39 43 38 39
35 43 3 30 39 42 37 38
34 42 4 31 39 42 37 37
33 39 5 32 38 40 36 36
32 38 5 32 38 40 35 36
31 37 6 33 38 40 35 35
30 36 7 34 37 38 33 33
28 34 8 34 36 36 31 31
26 32 9 33 35 33 29 29
25 30 10 32 35 31 27 27
23 28 11 32 34 29 25 25
22 26 12 31 32 27 24 24
20 23 13 30 30 25 22 22
18 20 14 29 28 24 21 20
16 17 14 28 26 23 20 19
14 14 15 27 24 21 18 17
12 11 16 26 23 19 16 16
10 9 16 24 21 17 14 14
7 7 16 22 19 15 12 12
5 5 16 20 17 13 10 10
3 3 16 18 15 11 8 8
1 2 15 17 14 9 7 7
1 2 15 17 13 8 7 7
2 2 15 16 12 7 6 6
2 2 15 16 12 7 6 6
2 2 15 16 11 6 6 6
3 3 16 15 10 5 5 5
2 1 16 13 8 3 4 4
0 0 15 11 6 2 2 2
-2 -2 14 10 5 1 1 1
-3 -4 14 8 3 -2 0 0
-4 -5 13 7 2 -3 -2 -2
-5 -7 12 5 0 -4 -3 -3
-6 -9 11 3 -2 -6 -4 -5
-6 -11 10 2 -3 -7 -4 -6
-7 -13 9 0 -5 -8 -5 -7
-8 -14 8 -2 -6 -9 -6 -8
-8 -13 8 -2 -6 -9 -6 -8
-8 -12 8 -2 -5 -8 -5 -7
-8 -11 8 -2 -5 -8 -5 -7
-8 -10 8 -2 -5 -8 -5 -7
-8 -9 9 -2 -4 -7 -4 -6
-8 -9 9 -2 -4 -7 -4 -6
-8 -10 8 -2 -5 -8 -5 -7
-8 -10 8 -2 -5 -8 -6 -7
-8 -10 8 -2 -5 -8 -6 -7
-8 -11 7 0 -6 -9 -7 -8
-8 -11 7 0 -6 -9 -7 -8
-8 -11 7 0 -6 -9 -7 -8
-8 -11 7 0 -6 -9 -7 -8
-8 -11 7 0 -6 -9 -7 -8
-9 -10 6 0 -5 -10 -7 -9
-9 -10 6 0 -5 -10 -7 -9
-10 -10 6 0 -5 -10 -7 -9
-10 -10 6 0 -5 -10 -7 -9
-10 -10 6 0 -5 -10 -7 -9
-11 -11 7 0 -6 -10 -7 -8
-11 -11 7 0 -6 -10 -7 -8
-10 -10 7 1 -5 -10 -7 -8
-10 -10 7 1 -5 -10 -7 -8
-10 -10 7 1 -5 -10 -7 -8
-9 -9 8 2 -4 -9 -6 -8
-9 -9 8 2 -4 -9 -6 -8
-9 -10 8 2 -4 -9 -6 -8
-9 -11 8 2 -4 -10 -7 -9
-9 -11 8 2 -4 -10 -7 -9
-10 -12 9 2 -5 -11 -8 -10
-10 -12 9 2 -5 -11 -8 -10
-11 -12 9 2 -5 -11 -8 -10
-12 -12 9 2 -5 -11 -8 -10
-12 -12 9 2 -5 -11 -8 -10
-13 -11 9 1 -6 -10 -7 -9
-11 -10 9 1 -6 -10 -7 -9
-10 -10 9 1 -6 -10 -7 -9
-9 -9 9 1 -6 -10 -7 -9
-7 -8 9 1 -6 -10 -7 -9
-6 -7 10 2 -5 -10 -8 -8
-7 -7 10 2 -5 -11 -8 -8
-8 -8 10 1 -6 -11 -8 -8
-10 -9 9 0 -7 -12 -8 -8
-11 -9 9 0 -7 -13 -8 -8
-12 -10 8 -2 -8 -14 -9 -9
-12 -10 8 -2 -8 -14 -9 -9
-12 -10 8 -2 -8 -14 -9 -9
-12 -11 8 -3 -8 -14 -9 -10
-12 -11 8 -3 -8 -14 -9 -10
-11 -12 8 -4 -8 -13 -8 -11
-11 -12 8 -4 -8 -13 -8 -11
-11 -12 8 -4 -8 -13 -8 -11
-12 -12 8 -4 -8 -13 -9 -11
-12 -12 8 -4 -8 -13 -9 -11
-13 -12 7 -4 -9 -14 -10 -11
-13 -13 7 -4 -10 -14 -10 -11
-13 -14 7 -5 -10 -14 -10 -11
-14 -15 6 -6 -11 -14 -10 -11
-14 -16 6 -6 -12 -14 -10 -11
-15 -17 5 -7 -13 -15 -11 -11
-15 -16 5 -7 -12 -15 -10 -10
-15 -15 5 -6 -12 -15 -10 -10
-15 -13 6 -5 -11 -15 -9 -9
-15 -12 6 -5 -10 -15 -8 -8
-14 -11 7 -4 -9 -14 -7 -7
-14 -9 8 -4 -9 -14 -7 -7
-13 -8 9 -4 -9 -14 -7 -7
-12 -7 10 -4 -9 -13 -7 -7
-12 -5 11 -4 -9 -13 -7 -7
-11 -4 12 -3 -8 -12 -7 -7
-11 -2 13 -2 -8 -11 -6 -6
-11 1 13 -2 -7 -10 -5 -6
-10 3 14 0 -6 -9 -4 -5
-10 5 15 1 -6 -8 -3 -4
-9 7 16 2 -5 -7 -2 -3
-8 9 16 2 -4 -6 0 -2
-7 10 16 3 -3 -5 1 0
-5 11 16 4 -2 -4 3 2
-4 13 16 4 0 -3 4 3
-3 14 17 5 1 -2 5 4
-3 14 15 4 1 -2 5 4
-3 14 13 3 0 -2 5 4
-2 14 11 1 -2 -3 5 4
-2 14 9 0 -2 -3 5 4
0 14 8 -2 -3 -4 4 4
3 14 7 -2 -3 -4 4 4
5 13 7 -2 -3 -4 4 4
7 12 6 -2 -3 -4 3 4
9 12 5 -2 -3 -4 3 4
11 11 4 0 -3 -3 2 4
9 10 4 -2 -3 -4 2 4
8 9 4 -2 -4 -4 2 3
7 7 3 -3 -5 -5 2 2
5 6 3 -4 -5 -6 2 2
3 4 2 -5 -7 -7 0 0
-2 -2 2 -7 -9 -10 -3 -3
-6 -6 2 -9 -11 -12 -5 -6
-10 -10 1 -11 -14 -14 -8 -8
-13 -14 1 -12 -16 -16 -10 -11
-16 -17 0 -14 -18 -18 -12 -13
-16 -17 0 -14 -18 -18 -12 -13
-17 -18 0 -15 -18 -19 -13 -13
-18 -19 0 -16 -19 -20 -14 -14
-18 -19 0 -16 -19 -20 -14 -14
-19 -20 1 -17 -20 -21 -15 -15
-19 -21 1 -17 -20 -21 -16 -15
-19 -21 0 -17 -20 -21 -16 -16
-18 -22 -2 -18 -21 -22 -17 -17
-18 -23 -2 -18 -21 -22 -18 -17
-17 -24 -3 -19 -22 -23 -19 -18
-17 -24 -3 -19 -22 -23 -19 -18
-17 -24 -3 -19 -22 -23 -19 -18
-17 -24 -3 -19 -22 -23 -19 -18
-17 -24 -3 -19 -22 -23 -19 -18
-18 -23 -4 -20 -23 -23 -18 -18
-19 -23 -4 -20 -23 -23 -18 -18
-20 -23 -4 -20 -23 -23 -18 -18
-22 -23 -4 -20 -23 -23 -18 -18
-23 -23 -4 -20 -23 -23 -18 -18
-24 -23 -3 -20 -23 -23 -17 -18
-24 -23 -3 -20 -23 -23 -17 -18
-23 -23 -3 -20 -23 -23 -17 -18
-22 -24 -3 -20 -23 -23 -17 -18
-22 -24 -3 -20 -23 -23 -17 -18
-21 -25 0 -19 -22 -23 -17 -18
-22 -23 4 -15 -20 -21 -16 -18
-23 -22 8 -11 -17 -20 -16 -18
-24 -20 12 -8 -14 -18 -15 -18
-25 -18 16 -4 -11 -16 -14 -18
-28 -15 25 6 -4 -12 -11 -15
-33 -8 40 22 9 -2 -3 -10
-39 0 56 39 21 8 5 -5
-45 7 71 56 34 18 12 1
-50 14 88 72 47 27 19 6
-48 21 97 87 59 38 27 13
-33 28 95 96 71 52 36 22
-18 36 93 106 82 64 46 31
-4 44 91 116 95 77 55 40
12 52 90 127 107 91 64 50
31 67 79 130 118 106 78 65
58 93 58 122 130 125 98 88
86 119 35 114 140 142 118 110
112 145 14 107 151 160 139 133
139 171 -8 99 162 179 159 155
154 176 -30 76 151 173 158 159
152 146 -53 32 104 130 126 133
149 115 -76 -13 57 87 93 106
146 86 -99 -57 11 43 60 78
143 56 -122 -101 -36 0 27 52
131 32 -135 -131 -69 -32 3 30
104 18 -127 -137 -80 -48 -11 16
78 4 -119 -143 -92 -63 -23 2
52 -11 -112 -149 -103 -78 -35 -12
25 -25 -105 -155 -114 -94 -48 -26
6 -34 -96 -152 -117 -100 -55 -35
-3 -36 -83 -134 -104 -90 -52 -35
-12 -38 -71 -115 -92 -80 -49 -36
-20 -40 -59 -97 -79 -70 -46 -37
-28 -43 -47 -78 -67 -60 -41 -37
-33 -44 -36 -63 -57 -52 -38 -37
-31 -40 -30 -55 -51 -47 -34 -34
-28 -37 -24 -47 -44 -41 -30 -31
-25 -34 -18 -38 -37 -36 -27 -28
-22 -31 -12 -30 -30 -31 -23 -24
-20 -29 -8 -25 -26 -27 -20 -22
-20 -28 -7 -24 -25 -26 -19 -22
-20 -27 -6 -22 -24 -25 -19 -22
-20 -25 -5 -21 -22 -23 -18 -21
-20 -24 -4 -19 -21 -22 -17 -21
-20 -23 -3 -18 -20 -21 -16 -20
-20 -23 -3 -18 -20 -21 -16 -20
-20 -23 -3 -18 -20 -21 -16 -20
-21 -23 -2 -18 -20 -21 -16 -20
-21 -23 -2 -18 -20 -21 -16 -20
-22 -23 0 -17 -21 -20 -15 -19
-22 -23 0 -17 -21 -20 -15 -19
-22 -23 0 -17 -20 -20 -15 -19
-22 -22 0 -17 -19 -19 -15 -19
-22 -22 0 -17 -19 -19 -15 -19
-22 -21 1 -16 -18 -18 -15 -19
-22 -21 1 -16 -18 -18 -15 -19
-22 -22 1 -15 -18 -18 -15 -19
-22 -23 1 -14 -18 -18 -14 -19
-22 -23 1 -14 -18 -18 -14 -19
-21 -24 0 -13 -17 -18 -13 -18
-20 -23 0 -13 -17 -17 -13 -18
-20 -22 0 -13 -16 -16 -13 -18
-19 -20 1 -12 -15 -15 -13 -18
-18 -19 1 -12 -15 -14 -13 -18
-17 -18 2 -11 -14 -13 -12 -17
-17 -19 2 -11 -14 -13 -12 -17
-17 -19 1 -11 -14 -13 -12 -17
-18 -20 0 -11 -15 -14 -12 -17
-18 -21 0 -11 -15 -14 -12 -17
-19 -22 -2 -12 -16 -15 -13 -17
-19 -22 -2 -12 -15 -14 -12 -17
-19 -21 0 -11 -14 -14 -12 -16
-19 -20 1 -10 -13 -13 -11 -15
-19 -20 1 -10 -12 -12 -10 -15
