I II V1 V2 V3 V4 V5 V6
-5 4 5 17 0 7 18 5
-5 4 5 17 0 7 18 5
-5 4 5 17 0 7 19 6
-4 5 4 17 0 7 20 7
-4 5 4 17 0 7 21 8
-4 5 4 17 0 7 22 9
-3 7 3 16 1 8 23 10
-3 8 4 16 0 9 23 10
-3 10 5 16 0 9 23 10
-3 11 6 16 -2 10 23 10
-3 12 6 16 -2 10 23 10
-2 13 7 16 -3 12 24 10
-2 14 7 16 -2 13 26 11
-2 15 7 15 0 15 28 12
-2 16 7 15 1 16 30 13
-2 16 7 15 1 17 32 14
0 17 7 14 2 18 33 15
-2 16 7 13 1 18 33 15
-3 16 7 12 1 18 32 14
-4 15 7 11 0 18 32 14
-4 15 7 10 0 18 32 14
-5 15 7 9 0 18 31 13
-4 16 6 10 2 20 32 14
-3 18 6 11 3 21 33 15
-2 19 5 12 5 23 34 16
0 20 5 13 6 24 34 17
1 20 4 14 7 25 34 16
1 19 3 13 7 24 33 14
0 17 3 13 7 23 31 12
0 16 2 12 7 22 30 10
0 15 2 12 7 22 29 8
-2 13 1 11 7 21 27 7
-2 11 1 11 7 20 26 6
-2 10 0 11 7 19 25 5
-2 8 0 11 7 18 24 4
-2 7 0 11 7 18 23 4
-2 5 -2 11 7 16 21 1
-3 4 -3 10 6 15 19 -2
-4 2 -4 9 5 14 17 -5
-5 1 -5 8 4 13 15 -7
-5 0 -5 7 3 12 13 -9
-7 -3 -6 5 1 10 11 -10
-9 -4 -7 4 -2 8 9 -10
-11 -6 -7 3 -3 6 8 -11
-13 -7 -8 2 -5 4 6 -11
-14 -8 -8 1 -6 3 5 -11
-15 -9 -9 0 -7 2 4 -12
-14 -9 -9 0 -6 2 4 -12
-13 -9 -9 0 -5 2 4 -12
-12 -9 -9 0 -4 2 4 -12
-11 -9 -9 0 -4 2 4 -12
-10 -9 -10 1 -3 3 4 -11
-11 -10 -10 0 -4 2 3 -12
-12 -11 -10 -2 -5 1 2 -13
-13 -12 -10 -3 -6 0 1 -14
-14 -12 -10 -3 -7 -2 0 -14
-15 -13 -11 -4 -8 -3 -2 -15
-14 -12 -11 -4 -7 -3 0 -15
-14 -11 -11 -4 -7 -2 0 -14
-13 -10 -11 -4 -6 -2 1 -14
-13 -9 -11 -4 -6 -2 1 -14
-11 -8 -12 -3 -5 0 2 -13
-10 -8 -12 -4 -6 0 1 -13
-9 -8 -12 -4 -6 -2 0 -14
-8 -8 -12 -5 -7 -2 -2 -14
-7 -8 -12 -5 -7 -2 -2 -14
-8 -10 -11 -6 -8 -3 -3 -15
-10 -11 -11 -6 -9 -4 -3 -15
-12 -12 -12 -6 -10 -4 -4 -16
-14 -13 -12 -6 -11 -5 -4 -16
-16 -14 -12 -6 -11 -5 -4 -16
-17 -15 -13 -7 -12 -6 -5 -17
-16 -14 -13 -7 -11 -6 -5 -16
-15 -13 -13 -7 -11 -6 -5 -16
-14 -12 -13 -7 -10 -6 -5 -15
-14 -11 -13 -7 -10 -6 -5 -15
-13 -10 -13 -6 -9 -5 -6 -14
-12 -10 -12 -6 -9 -5 -6 -14
-12 -9 -11 -6 -9 -5 -5 -14
-11 -9 -10 -6 -9 -5 -5 -14
-11 -9 -9 -6 -9 -5 -5 -14
-10 -8 -8 -5 -8 -6 -5 -14
-11 -9 -9 -5 -9 -6 -6 -14
-11 -10 -10 -5 -9 -7 -7 -14
-12 -11 -11 -5 -10 -7 -8 -14
-12 -11 -11 -5 -10 -7 -9 -14
-13 -12 -12 -5 -11 -8 -10 -13
-12 -12 -12 -5 -11 -8 -9 -13
-12 -11 -11 -5 -11 -8 -8 -14
-11 -11 -11 -5 -11 -8 -7 -14
-11 -11 -11 -5 -11 -8 -7 -14
-10 -10 -10 -6 -10 -7 -6 -15
-10 -10 -9 -6 -9 -7 -6 -14
-10 -9 -9 -6 -8 -7 -7 -14
-10 -9 -8 -6 -7 -7 -7 -13
-10 -9 -8 -6 -7 -7 -7 -13
-11 -8 -7 -7 -6 -6 -8 -12
-12 -9 -7 -7 -6 -6 -8 -12
-13 -10 -7 -8 -7 -6 -8 -12
-14 -11 -7 -8 -7 -6 -8 -12
-15 -11 -7 -8 -7 -6 -8 -12
-15 -12 -8 -9 -8 -7 -7 -13
-14 -12 -8 -10 -9 -7 -7 -13
-12 -12 -9 -10 -9 -8 -8 -13
-11 -12 -9 -11 -10 -8 -8 -13
-10 -12 -9 -11 -10 -8 -8 -13
-9 -11 -10 -12 -11 -9 -9 -12
-10 -10 -9 -12 -11 -8 -9 -12
-11 -10 -8 -11 -10 -8 -9 -12
-12 -9 -7 -11 -10 -7 -9 -12
-13 -9 -7 -11 -10 -7 -9 -12
-14 -8 -6 -10 -9 -6 -8 -13
-13 -9 -6 -10 -9 -7 -8 -13
-12 -9 -6 -11 -10 -7 -9 -13
-11 -10 -6 -11 -10 -8 -9 -13
-11 -10 -6 -11 -10 -8 -9 -13
-10 -11 -6 -12 -11 -9 -10 -13
-10 -11 -6 -11 -11 -9 -10 -13
-10 -10 -6 -10 -11 -8 -9 -12
-10 -10 -6 -9 -11 -8 -9 -12
-10 -10 -6 -9 -11 -8 -9 -12
-9 -9 -6 -8 -10 -7 -8 -11
-7 -8 -5 -8 -9 -7 -8 -11
-6 -8 -5 -8 -9 -6 -8 -11
-4 -7 -4 -8 -8 -6 -8 -11
-3 -7 -4 -8 -8 -6 -8 -11
-2 -6 -3 -7 -7 -5 -7 -10
-2 -6 -2 -5 -6 -5 -7 -10
-2 -5 0 -4 -5 -4 -7 -10
-2 -5 1 -2 -4 -4 -7 -10
-2 -5 1 0 -4 -4 -7 -10
-3 -4 2 1 -3 -3 -6 -10
-3 -4 2 1 -2 -2 -6 -10
-3 -4 3 1 -2 -2 -5 -10
-3 -4 3 1 0 0 -5 -10
-3 -4 3 1 0 0 -5 -10
-3 -3 4 1 1 1 -4 -8
0 -2 3 1 1 1 -4 -7
1 -2 3 1 1 1 -4 -6
3 0 2 1 1 1 -4 -5
4 0 2 1 1 1 -4 -4
5 1 0 2 2 1 -3 -3
5 1 -2 1 2 1 -3 -3
6 1 -4 0 2 2 -2 -3
6 1 -5 -2 2 2 -2 -3
6 1 -6 -2 2 2 -2 -3
7 1 -7 -3 1 3 0 -4
6 0 -7 -4 0 2 -2 -4
5 -2 -7 -5 -2 1 -2 -4
4 -3 -7 -6 -3 0 -3 -4
3 -3 -7 -6 -4 0 -3 -4
4 -4 -6 -7 -5 -2 -4 -5
6 -4 -6 -7 -5 -3 -4 -5
8 -4 -6 -6 -5 -4 -4 -5
11 -4 -6 -6 -5 -5 -4 -5
13 -4 -6 -6 -5 -5 -4 -5
12 -4 -6 -5 -5 -6 -5 -4
9 -5 -5 -5 -5 -6 -5 -4
6 -6 -4 -5 -5 -6 -5 -4
3 -7 -3 -5 -5 -6 -5 -4
0 -7 -3 -5 -5 -6 -5 -4
-3 -8 -2 -5 -6 -6 -6 -6
-6 -8 0 -5 -6 -6 -7 -7
-8 -9 0 -6 -6 -7 -8 -9
-10 -9 1 -6 -6 -7 -9 -10
-12 -9 1 -6 -6 -7 -9 -11
-12 -10 2 -7 -7 -8 -10 -12
-11 -10 2 -7 -7 -9 -11 -12
-10 -9 3 -7 -8 -9 -11 -12
-9 -9 3 -7 -8 -10 -12 -12
-8 -9 3 -7 -8 -10 -12 -12
-8 -8 4 -8 -9 -11 -13 -12
-9 -9 4 -7 -9 -11 -13 -12
-10 -9 4 -7 -9 -10 -13 -12
-11 -10 4 -6 -9 -10 -13 -12
-12 -10 4 -6 -9 -10 -13 -12
-12 -11 5 -5 -10 -9 -12 -12
-11 -11 5 -5 -10 -9 -12 -12
-9 -11 5 -5 -9 -10 -12 -12
-7 -11 5 -5 -9 -10 -12 -12
-6 -11 5 -5 -9 -10 -12 -12
-7 -10 5 -5 -8 -11 -12 -12
-9 -10 5 -4 -8 -11 -12 -12
-11 -10 5 -2 -7 -10 -12 -12
-14 -10 5 1 -7 -10 -12 -12
-16 -10 5 2 -7 -10 -12 -12
-15 -8 11 17 12 5 -5 -11
-12 -5 18 34 33 21 6 -7
-9 0 25 51 55 38 16 -4
-6 3 32 68 76 55 26 1
-3 7 38 86 98 71 36 4
11 18 49 118 141 107 63 20
26 30 60 153 188 146 93 38
42 43 71 189 235 185 122 58
57 55 81 225 282 224 152 76
72 67 93 260 328 263 182 96
77 69 73 220 290 236 178 98
79 68 48 164 234 196 165 95
81 68 22 109 179 156 154 93
85 67 -4 54 123 116 142 91
87 67 -29 -2 67 77 130 89
72 53 -60 -63 2 29 93 71
53 36 -91 -126 -65 -21 51 51
33 20 -121 -188 -133 -71 9 30
14 3 -152 -251 -200 -121 -34 10
-6 -14 -183 -313 -268 -171 -76 -11
-10 -17 -173 -297 -258 -169 -78 -15
-11 -17 -154 -263 -230 -154 -72 -14
-12 -17 -136 -229 -203 -140 -66 -13
-13 -17 -117 -195 -177 -126 -61 -12
-13 -17 -99 -161 -150 -111 -55 -11
-13 -16 -81 -134 -127 -96 -48 -10
-10 -12 -65 -108 -104 -80 -40 -9
-8 -9 -49 -82 -81 -65 -33 -8
-6 -5 -31 -56 -59 -50 -26 -7
-4 -2 -15 -30 -36 -34 -19 -7
-3 -2 -9 -21 -28 -29 -17 -6
-3 -3 -5 -16 -23 -26 -16 -7
-4 -4 0 -11 -18 -22 -16 -7
-4 -6 5 -6 -13 -19 -15 -8
-4 -7 9 0 -8 -16 -15 -8
-5 -8 10 2 -6 -15 -14 -9
-5 -8 11 3 -5 -13 -14 -9
-5 -7 12 4 -4 -12 -13 -9
-5 -7 13 6 -2 -11 -13 -9
-5 -7 13 7 0 -10 -13 -9
-5 -6 14 8 1 -9 -12 -9
-4 -6 14 8 1 -9 -12 -9
-3 -6 14 7 1 -9 -12 -9
0 -6 14 7 1 -9 -12 -9
1 -6 14 7 1 -9 -12 -9
1 -5 15 6 1 -9 -12 -9
-2 -7 15 6 2 -8 -12 -9
-4 -8 15 6 3 -8 -12 -9
-6 -9 15 6 4 -7 -12 -9
-8 -10 15 6 4 -7 -12 -9
-9 -11 16 7 5 -6 -11 -10
-8 -9 16 7 5 -6 -11 -10
-7 -8 17 7 5 -6 -11 -10
-6 -7 17 7 5 -6 -11 -10
-6 -6 17 7 5 -6 -11 -10
-5 -5 18 8 6 -5 -10 -10
-5 -5 19 9 7 -5 -10 -9
-6 -5 20 9 7 -4 -10 -9
-6 -5 21 10 8 -4 -10 -8
-6 -5 22 10 8 -4 -10 -8
-7 -4 23 11 9 -3 -9 -7
-6 -4 23 11 9 -3 -9 -7
-5 -4 23 11 9 -3 -8 -8
-4 -4 23 11 9 -3 -8 -8
-4 -4 23 11 9 -3 -8 -8
-3 -3 22 10 9 -4 -7 -9
-3 -3 22 10 9 -4 -7 -9
-3 -3 22 10 10 -3 -7 -8
-3 -3 22 10 10 -3 -7 -8
-3 -3 22 10 10 -3 -7 -8
-4 -4 22 11 11 -2 -8 -7
-4 -4 22 12 11 -2 -8 -7
-4 -4 22 12 12 -2 -7 -7
-4 -4 22 13 12 -2 -7 -7
-4 -4 22 13 12 -2 -7 -7
-4 -3 22 14 13 0 -6 -8
-6 -4 22 15 13 1 -6 -7
-7 -4 22 16 13 1 -6 -7
-8 -5 22 17 13 2 -6 -6
-9 -5 22 17 13 2 -6 -6
-9 -6 23 18 13 3 -5 -5
-8 -5 23 18 13 3 -5 -4
-6 -4 23 18 14 3 -4 -4
-4 -3 23 18 14 3 -4 -3
-3 -3 23 18 14 3 -4 -3
-2 -2 24 17 15 3 -3 -2
0 0 24 18 15 3 -3 -2
0 0 24 19 16 3 -3 -2
1 1 24 20 16 3 -3 -2
1 1 24 20 16 3 -3 -2
2 2 25 22 17 4 -2 -2
2 2 25 23 18 5 0 -2
3 1 25 24 19 6 0 0
3 1 25 26 20 7 1 0
3 1 25 27 20 7 1 0
4 1 25 28 22 8 3 2
4 3 26 29 24 9 4 4
4 5 27 29 27 10 5 5
4 7 29 30 29 11 7 7
4 9 30 30 31 11 8 9
5 10 31 31 32 12 9 10
6 9 30 31 31 12 9 10
6 9 29 31 30 13 9 10
7 8 28 31 29 13 9 10
7 8 27 31 29 13 9 10
8 7 26 32 28 14 9 9
9 8 27 34 30 15 9 9
10 8 28 35 31 16 10 9
11 9 29 36 32 17 10 9
11 9 30 37 33 18 10 9
12 11 31 38 34 19 12 11
12 14 32 39 35 20 14 13
11 17 33 40 36 21 16 15
11 19 34 42 37 22 18 17
11 22 35 43 37 23 20 19
11 23 36 44 38 24 21 20
13 24 36 44 38 24 21 21
14 25 36 43 37 24 21 21
16 26 36 43 37 24 21 22
18 26 36 43 37 24 21 22
18 26 36 40 35 24 22 23
16 24 36 39 34 23 22 23
14 23 35 38 33 23 21 22
12 21 35 36 31 22 21 22
10 19 35 35 30 22 21 22
11 19 34 33 29 21 20 21
13 22 34 32 28 21 20 22
16 25 33 31 27 20 21 23
19 27 33 29 26 20 21 24
22 30 33 28 25 20 21 25
22 31 32 26 23 19 22 26
20 30 31 25 22 19 21 25
17 29 31 23 20 19 21 24
15 28 30 22 19 19 20 23
13 27 30 20 17 19 20 22
12 26 29 19 16 18 19 21
12 25 28 19 16 17 18 21
12 24 27 19 16 17 17 21
12 23 27 19 16 16 17 21
12 22 26 19 16 16 16 21
12 20 25 18 17 15 15 20
10 18 25 17 17 14 14 19
9 17 24 17 17 14 13 18
7 15 24 16 17 13 13 16
5 13 24 16 17 13 12 15
4 12 23 15 16 12 10 14
5 12 22 14 15 11 9 12
6 11 22 14 14 10 8 11
7 11 21 13 13 9 6 10
8 11 21 13 12 8 5 9
8 10 20 12 11 7 4 8
7 9 19 11 11 7 4 8
5 8 18 10 10 7 4 8
4 7 18 10 10 7 4 8
2 6 17 9 10 7 4 8
1 5 16 8 9 6 3 9
3 4 15 7 8 5 2 8
4 4 15 7 7 4 2 8
5 3 14 6 7 4 1 7
6 3 14 6 6 3 1 7
7 2 13 5 5 2 0 6
5 1 13 5 5 2 0 6
4 0 13 5 5 1 -2 5
3 0 13 5 5 1 -2 5
2 -2 13 5 5 1 -2 5
1 -3 13 5 5 0 -3 4
1 -3 13 5 5 0 -3 4
1 -3 12 6 5 0 -2 5
1 -3 12 6 5 0 -2 5
1 -3 12 6 5 0 -2 5
2 -2 11 7 5 1 0 6
1 -2 11 7 6 2 -2 5
0 0 11 6 6 3 -2 5
-2 0 11 6 7 3 -3 4
-3 0 11 6 7 4 -3 4
-4 1 12 5 8 5 -4 3
-3 1 12 6 8 5 -3 4
-3 1 12 6 8 5 -2 5
-2 1 12 7 8 5 -2 6
-2 1 12 7 8 5 0 7
0 2 11 8 8 4 1 8
0 2 11 8 8 4 1 8
0 1 11 8 8 4 1 8
0 1 11 8 8 4 1 8
0 1 11 8 8 4 1 8
-2 0 11 8 9 3 0 8
-2 -2 11 8 9 3 -2 8
-3 -3 11 8 8 2 -2 7
-3 -3 11 8 8 2 -3 7
-3 -4 11 8 8 2 -3 7
-4 -5 11 8 7 1 -4 6
-4 -5 11 8 7 1 -4 6
-4 -5 10 8 8 2 -3 6
-4 -5 10 8 8 2 -3 6
-4 -5 10 8 8 2 -3 6
-3 -4 9 7 9 3 -2 7
-3 -4 9 7 9 2 -2 7
-4 -4 9 7 8 2 -2 7
-4 -4 9 7 8 1 -2 7
-4 -4 9 7 8 1 -2 7
-5 -4 9 7 7 0 -2 6
-5 -4 9 7 7 1 -2 6
-4 -3 10 7 7 2 -2 6
-4 -3 10 7 7 3 -2 6
-4 -3 10 7 7 4 -2 6
-3 -2 11 6 8 5 0 6
-4 -3 10 6 7 4 0 5
-5 -4 10 5 7 3 -2 5
-5 -4 9 5 6 3 -2 4
-6 -5 9 5 6 2 -2 4
-7 -6 8 4 5 1 -3 3
-5 -6 8 4 5 1 -3 3
-4 -5 8 4 5 1 -3 4
-3 -5 8 4 5 1 -3 4
-2 -5 8 4 5 1 -3 4
0 -4 8 4 5 1 -2 5
0 -5 8 4 5 1 -2 4
-2 -6 7 4 5 1 -2 4
-2 -6 7 4 5 1 -2 3
-2 -7 7 4 5 1 -2 3
-3 -8 6 4 4 0 -3 2
-4 -8 6 2 2 -2 -4 2
-5 -8 6 1 1 -2 -5 2
-5 -8 6 0 0 -3 -5 2
-6 -8 6 -2 -2 -3 -6 2
-7 -7 6 -3 -3 -4 -7 1
-6 -7 5 -3 -3 -4 -7 1
-5 -7 4 -3 -3 -4 -7 1
-5 -7 3 -3 -3 -4 -7 1
-4 -7 2 -3 -3 -4 -7 1
-3 -6 1 -2 -3 -5 -6 0
-4 -6 1 -2 -3 -5 -6 0
-5 -6 1 -3 -3 -5 -6 0
-5 -6 1 -3 -3 -5 -6 0
-6 -6 1 -3 -3 -5 -6 0
-7 -7 1 -4 -3 -4 -6 -2
-7 -7 1 -3 -3 -4 -6 -2
-6 -7 1 -2 -3 -3 -6 -2
-6 -7 1 -2 -3 -3 -6 -2
-6 -7 1 0 -3 -3 -6 -2
-5 -8 3 1 -3 -2 -6 -3
-4 -7 4 2 0 -2 -5 -2
-3 -6 6 3 1 0 -4 0
-2 -5 7 4 3 1 -3 1
0 -4 9 5 4 1 -2 2
1 -3 10 6 5 2 0 3
1 -3 10 6 5 2 0 3
0 -3 9 6 5 2 0 3
0 -3 9 6 5 2 0 3
0 -3 9 6 5 2 0 3
-2 -4 8 6 4 2 -2 2
-2 -3 8 7 5 3 0 2
0 -2 9 8 6 4 1 3
0 -2 9 8 6 4 2 4
0 0 9 9 7 5 3 4
1 1 9 9 8 6 4 5
1 1 6 8 7 6 4 5
2 1 4 6 6 6 4 5
2 1 1 4 5 6 4 5
2 1 -3 2 4 6 4 5
3 1 -4 1 3 5 3 4
4 0 -4 1 3 5 3 4
6 -2 -4 0 2 4 3 4
7 -2 -4 -2 1 3 3 4
8 -3 -4 -2 1 3 3 4
9 -4 -5 -3 0 2 3 5
8 -4 -5 -3 0 2 3 5
7 -3 -5 -3 -2 1 2 5
6 -3 -5 -3 -2 0 2 5
5 -3 -5 -3 -2 0 2 5
4 -2 -5 -3 -3 -2 1 4
4 -3 -5 -4 -3 -2 1 4
5 -4 -5 -5 -4 -3 1 3
6 -5 -5 -5 -4 -4 1 2
6 -6 -5 -6 -4 -4 1 2
6 -7 -5 -7 -5 -5 1 1
4 -7 -5 -7 -5 -5 -2 0
1 -8 -4 -6 -5 -5 -3 -2
-2 -9 -3 -6 -5 -5 -5 -3
-5 -9 -3 -6 -5 -5 -6 -4
-6 -10 -2 -5 -6 -5 -7 -5
-6 -10 -2 -6 -7 -6 -7 -5
-7 -10 -2 -7 -8 -7 -8 -6
-7 -10 -2 -7 -9 -7 -8 -7
-7 -10 -2 -8 -10 -8 -8 -7
-8 -9 0 -9 -11 -9 -9 -8
-9 -10 0 -9 -11 -9 -9 -9
-11 -11 0 -9 -11 -9 -10 -10
-12 -11 0 -9 -11 -9 -10 -10
-13 -12 0 -9 -11 -9 -10 -11
-14 -13 0 -9 -12 -10 -11 -12
-15 -13 0 -9 -12 -10 -11 -12
-17 -13 1 -8 -11 -10 -10 -11
-18 -13 1 -8 -11 -10 -10 -11
-19 -13 1 -8 -11 -10 -10 -11
-19 -13 2 -7 -10 -10 -9 -10
-17 -13 2 -7 -10 -10 -9 -10
-15 -12 2 -7 -10 -10 -9 -10
-13 -11 2 -7 -10 -10 -9 -10
-10 -11 2 -7 -10 -10 -9 -10
-9 -10 2 -7 -10 -9 -10 -11
-11 -11 4 -4 -8 -8 -10 -13
-13 -13 7 -2 -6 -7 -11 -14
-14 -14 9 2 -4 -7 -11 -16
-16 -15 12 4 0 -6 -11 -17
-13 -12 17 22 21 12 0 -13
-5 -5 23 51 57 40 18 -3
3 3 30 78 92 68 36 8
11 10 36 107 128 96 55 18
18 18 44 136 162 125 73 28
29 28 48 157 195 155 98 42
44 39 50 174 226 187 125 58
57 52 52 191 257 220 152 75
70 64 54 207 287 252 179 92
84 76 57 225 317 284 206 108
82 74 37 183 276 256 193 105
71 63 2 101 184 184 151 88
59 51 -33 18 92 112 108 70
47 38 -69 -64 0 40 66 53
34 26 -105 -147 -93 -31 24 34
24 16 -128 -196 -147 -73 -3 22
14 8 -143 -222 -176 -96 -20 14
5 -2 -158 -248 -204 -118 -37 5
-6 -10 -174 -274 -232 -140 -55 -4
-16 -19 -188 -301 -261 -162 -72 -13
-20 -23 -181 -287 -254 -161 -75 -17
-18 -21 -156 -245 -220 -143 -67 -16
-17 -19 -132 -203 -186 -124 -60 -15
-15 -18 -107 -161 -152 -107 -52 -15
-14 -16 -81 -118 -118 -89 -45 -14
-13 -15 -65 -92 -96 -74 -38 -13
-13 -13 -53 -74 -80 -63 -33 -13
-12 -12 -40 -57 -65 -52 -28 -12
-12 -10 -28 -39 -50 -39 -23 -11
-12 -9 -16 -22 -34 -28 -18 -11
-11 -9 -10 -13 -26 -23 -15 -11
-11 -10 -8 -11 -25 -22 -15 -12
-12 -12 -6 -8 -23 -20 -16 -14
-13 -14 -4 -6 -21 -19 -17 -16
-13 -16 0 -4 -19 -18 -17 -18
-14 -17 1 -2 -18 -17 -18 -19
-14 -17 1 -2 -16 -16 -18 -19
-15 -18 1 0 -15 -15 -18 -19
-15 -18 1 1 -13 -15 -18 -19
-15 -18 1 1 -12 -14 -18 -19
-16 -19 2 2 -11 -13 -17 -18
-16 -19 2 2 -11 -13 -16 -18
-16 -18 3 2 -10 -12 -15 -17
-16 -18 4 2 -9 -12 -15 -17
-16 -18 4 2 -9 -12 -14 -17
-17 -17 5 3 -8 -11 -13 -16
-16 -16 5 3 -8 -10 -13 -16
-15 -15 5 4 -7 -9 -12 -16
-15 -15 5 5 -6 -9 -12 -16
-14 -14 5 5 -6 -8 -12 -16
-13 -13 6 6 -5 -7 -11 -15
-13 -13 6 6 -5 -7 -11 -15
-13 -14 6 5 -5 -8 -12 -15
-13 -14 6 5 -5 -9 -12 -15
-13 -14 6 5 -5 -9 -12 -15
-13 -15 7 4 -6 -10 -13 -16
-13 -15 7 4 -6 -10 -13 -16
-13 -14 7 5 -5 -9 -12 -15
-13 -13 7 5 -5 -9 -12 -14
-13 -13 7 5 -5 -9 -12 -14
-13 -12 8 6 -4 -8 -11 -13
-14 -13 8 6 -4 -8 -11 -13
-15 -14 8 6 -4 -8 -11 -13
-15 -14 8 6 -4 -8 -11 -13
-16 -15 8 6 -4 -8 -11 -13
-17 -16 9 5 -5 -9 -12 -12
-15 -15 9 6 -4 -9 -12 -11
-13 -13 9 7 -3 -8 -11 -10
-12 -12 9 7 -3 -7 -10 -10
-10 -11 9 8 -2 -7 -10 -9
-9 -10 9 9 0 -6 -9 -8
-10 -10 9 9 0 -6 -9 -8
-11 -10 9 10 1 -6 -9 -7
-11 -10 9 10 1 -6 -9 -7
-12 -10 9 10 1 -6 -9 -7
-13 -10 8 11 2 -5 -8 -6
-11 -10 8 11 2 -5 -8 -6
-9 -10 9 11 3 -5 -7 -6
-8 -10 10 11 3 -5 -7 -6
-6 -10 10 11 3 -5 -7 -6
-5 -11 11 11 4 -4 -6 -5
-6 -11 11 11 4 -4 -6 -5
-7 -11 10 12 4 -4 -6 -5
-8 -11 10 12 4 -4 -6 -5
-9 -11 10 12 4 -4 -6 -5
-10 -10 9 13 4 -4 -6 -5
-9 -10 9 13 4 -3 -6 -5
-8 -9 9 14 5 0 -5 -4
-7 -8 9 14 6 1 -5 -3
-6 -8 9 14 6 2 -5 -3
-5 -7 8 15 7 3 -4 -2
-5 -7 8 16 8 3 -4 -2
-4 -6 9 17 9 3 -3 0
-3 -5 9 17 9 3 -2 1
-3 -5 9 18 10 3 -2 1
-2 -4 10 19 11 3 0 2
-2 -4 10 20 12 4 0 2
-2 -4 10 22 13 6 1 3
-2 -4 10 23 14 7 2 3
-2 -4 10 24 15 8 2 3
-3 -3 11 25 16 9 3 4
-2 -2 12 26 17 9 5 6
0 0 14 28 18 10 7 8
0 1 15 29 19 11 8 10
1 2 16 30 20 11 10 12
2 3 17 31 21 12 11 13
2 4 18 31 21 13 12 13
2 6 19 32 22 14 13 14
2 7 19 33 22 15 14 14
2 8 20 33 22 16 15 14
2 9 21 34 23 17 16 15
2 10 21 34 23 17 17 17
2 11 21 34 23 18 18 18
2 11 21 34 23 19 18 19
2 12 21 34 23 19 19 21
3 13 22 34 24 20 20 22
4 14 22 34 24 20 20 22
5 16 22 34 24 20 21 22
6 17 22 34 24 20 21 22
7 18 22 34 24 20 21 22
8 19 23 34 24 20 22 23
8 20 23 33 23 20 23 24
9 21 23 32 22 20 24 25
9 21 23 31 22 20 24 25
9 22 23 30 21 20 25 26
10 23 23 29 20 20 26 27
10 23 22 27 19 20 26 27
11 23 21 25 18 20 26 27
12 23 21 24 18 20 26 27
12 23 20 22 17 20 26 27
13 24 19 21 16 20 26 27
13 24 19 21 16 20 26 27
13 24 19 21 16 20 26 27
13 24 19 21 16 20 26 27
13 24 19 21 16 20 26 27
12 24 19 20 15 20 26 26
12 22 18 20 15 20 25 24
11 21 18 20 15 20 24 23
10 19 17 20 15 19 23 22
10 17 16 20 15 19 22 20
8 16 15 19 15 18 21 18
5 14 15 18 15 17 20 16
3 13 15 18 15 16 19 14
0 11 15 17 15 14 17 12
-4 9 15 16 15 13 16 10
-6 8 14 15 14 12 15 8
-5 7 13 15 13 12 14 8
-4 7 12 15 13 12 13 8
-2 6 11 14 12 11 11 8
0 5 10 14 11 11 10 8
1 4 9 13 10 10 9 7
1 4 8 11 8 8 7 5
1 4 7 10 6 7 6 4
0 3 6 8 4 5 4 2
0 3 5 6 2 3 2 0
-2 2 4 5 1 2 1 -2
-4 1 4 5 1 2 1 -2
-5 0 4 5 1 2 1 -2
-6 -2 4 5 1 2 0 -2
-8 -3 4 5 1 2 0 -2
-9 -4 3 4 0 1 -2 -2
-8 -4 3 4 0 1 -2 -2
-7 -4 3 4 1 1 -2 -2
-6 -4 3 5 2 1 -2 -2
-5 -4 3 5 2 1 -2 -2
-4 -5 3 6 3 0 0 -2
-4 -5 3 6 3 0 0 -2
-4 -5 3 6 3 0 0 -2
-4 -5 4 6 2 0 1 -3
-4 -5 4 6 2 0 1 -3
-5 -5 5 6 1 -2 2 -4
-5 -5 5 6 1 -2 2 -4
-5 -5 5 6 1 -2 1 -4
-5 -5 5 6 1 -2 0 -4
-5 -5 5 6 1 -2 0 -4
-5 -4 4 7 2 0 -2 -4
-5 -4 4 7 2 0 -2 -4
-5 -4 4 7 2 1 -2 -4
-5 -4 4 7 2 2 -2 -4
-5 -4 4 7 2 2 -2 -4
-6 -5 3 6 2 3 -2 -5
-5 -5 3 6 2 2 -2 -5
-5 -5 3 6 2 2 -2 -5
-4 -4 4 7 3 1 -2 -5
-3 -4 4 7 3 0 -2 -5
-2 -3 5 8 4 -2 0 -6
-3 -3 5 8 4 -2 0 -6
-4 -3 5 8 4 -2 0 -6
-5 -3 5 8 4 -2 0 -6
-6 -3 5 8 4 -2 0 -6
-7 -4 5 8 3 0 1 -5
-6 -4 5 8 3 0 1 -5
-5 -4 4 8 3 0 0 -5
-3 -4 3 8 3 0 -2 -6
-2 -4 3 8 3 0 -2 -6
0 -5 2 7 2 -2 -3 -7
0 -5 2 7 2 -2 -3 -7
0 -5 3 7 2 -2 -3 -7
-2 -5 4 7 2 -2 -3 -7
-2 -5 4 7 2 -2 -3 -7
-3 -4 5 6 2 0 -3 -7
-3 -4 5 6 2 0 -3 -7
-4 -4 5 6 2 0 -3 -7
-5 -5 4 6 1 0 -3 -7
-5 -5 4 6 1 0 -3 -7
-6 -6 3 5 0 0 -3 -6
-6 -6 3 5 0 0 -3 -6
-6 -6 3 4 0 0 -3 -6
-5 -5 3 3 0 -2 -3 -6
-5 -5 3 3 0 -2 -3 -6
-4 -4 4 2 1 -3 -3 -7
-4 -5 4 2 1 -3 -3 -7
-4 -5 4 2 1 -3 -3 -7
-5 -6 3 2 0 -3 -3 -7
-5 -7 3 2 0 -3 -3 -7
-6 -8 2 2 -2 -4 -3 -8
-6 -8 2 2 -2 -4 -3 -8
-6 -7 2 2 -2 -4 -3 -8
-6 -6 2 2 -2 -4 -4 -8
-6 -6 2 2 -2 -4 -4 -8
-5 -5 2 1 -3 -5 -5 -9
-5 -5 2 1 -3 -5 -5 -9
-5 -5 2 0 -3 -5 -5 -9
-5 -5 1 -2 -4 -5 -6 -9
-5 -5 1 -2 -4 -5 -6 -9
-4 -6 0 -3 -5 -5 -7 -10
-4 -6 0 -3 -5 -5 -7 -10
-4 -6 1 -3 -5 -5 -7 -10
-4 -6 2 -2 -5 -5 -7 -10
-4 -6 2 -2 -5 -5 -7 -10
-4 -5 3 0 -4 -6 -6 -9
-4 -5 3 0 -4 -6 -6 -9
-4 -5 3 0 -4 -6 -6 -9
-4 -4 3 0 -4 -5 -6 -9
-4 -4 3 0 -4 -5 -6 -9
-3 -3 3 -2 -4 -4 -5 -8
-3 -3 3 -2 -4 -4 -5 -8
-3 -4 4 -2 -4 -4 -5 -8
-4 -5 5 0 -3 -4 -5 -8
-4 -5 5 0 -3 -4 -5 -8
-5 -6 6 1 -2 -4 -4 -9
-5 -5 6 2 0 -3 -4 -9
-4 -4 6 3 1 -3 -4 -9
-3 -3 7 5 3 -2 -3 -8
-3 -2 7 6 4 0 -3 -8
-2 0 8 7 5 1 -2 -7
0 2 8 7 5 1 -2 -6
0 3 8 7 5 1 -2 -6
1 5 9 7 5 1 -2 -5
2 7 9 7 5 1 -2 -4
3 8 9 6 4 1 0 -3
4 7 7 5 4 1 0 -3
4 6 4 3 3 1 0 -3
5 5 1 2 2 1 0 -3
6 4 -3 0 2 1 0 -3
7 3 -5 -2 1 0 0 -4
7 3 -5 -2 1 0 0 -4
7 3 -5 -3 1 0 0 -4
8 2 -5 -4 1 0 0 -3
8 2 -5 -4 1 0 0 -3
9 1 -6 -5 0 -2 0 -2
9 1 -6 -5 -2 -3 0 -2
9 1 -6 -5 -2 -3 0 -2
9 1 -6 -6 -3 -4 0 -2
9 1 -6 -6 -4 -5 0 -2
8 0 -7 -7 -5 -6 -2 -2
8 0 -7 -8 -5 -6 -2 -2
8 -2 -7 -8 -6 -7 -2 -3
9 -3 -7 -9 -7 -8 -3 -4
9 -3 -7 -10 -7 -8 -3 -4
10 -4 -8 -11 -8 -9 -4 -5
7 -5 -7 -11 -8 -9 -4 -5
5 -5 -7 -11 -8 -9 -5 -5
3 -6 -6 -11 -8 -9 -6 -6
1 -7 -5 -11 -8 -9 -6 -6
-2 -8 -4 -12 -9 -10 -7 -7
-3 -8 -3 -11 -9 -10 -7 -7
-5 -8 -2 -11 -9 -10 -7 -7
-6 -7 0 -10 -9 -10 -8 -8
-8 -7 1 -9 -9 -10 -8 -8
-9 -6 2 -8 -9 -10 -9 -9
-9 -6 2 -9 -10 -11 -10 -10
-9 -6 1 -11 -10 -12 -11 -10
-9 -7 0 -12 -11 -13 -12 -11
-9 -7 0 -14 -12 -14 -13 -12
-8 -8 -2 -15 -13 -15 -14 -13
-8 -8 -2 -15 -13 -14 -14 -13
-8 -8 -2 -15 -13 -14 -14 -12
-8 -9 0 -14 -12 -13 -14 -11
-8 -9 0 -14 -12 -12 -14 -11
-8 -10 1 -13 -11 -11 -13 -10
-8 -10 1 -13 -11 -11 -13 -11
-9 -10 1 -13 -11 -11 -13 -11
-10 -10 1 -13 -11 -11 -13 -12
-10 -10 1 -13 -11 -11 -13 -13
-11 -10 1 -11 -11 -12 -12 -14
-11 -10 3 -8 -9 -11 -12 -14
-11 -10 5 -5 -7 -11 -12 -14
-10 -11 7 -2 -5 -10 -12 -14
-10 -11 9 2 -3 -9 -12 -14
-7 -10 13 14 11 2 -7 -10
0 -3 19 38 44 28 11 -2
6 5 25 64 76 55 28 7
12 11 31 89 108 80 46 16
18 18 38 114 141 107 64 24
27 27 44 138 175 136 85 36
43 40 48 159 209 170 112 54
57 53 52 181 242 203 140 71
72 66 57 201 277 237 168 89
88 78 61 223 311 271 195 106
94 84 53 210 302 269 200 112
82 72 18 130 214 200 160 96
71 61 -16 51 126 133 121 79
60 50 -51 -29 36 64 82 63
49 38 -85 -109 -52 -5 43 47
37 27 -113 -172 -120 -58 11 32
27 16 -133 -203 -154 -83 -9 22
17 6 -152 -236 -189 -109 -28 13
7 -5 -172 -268 -223 -135 -48 3
-4 -16 -191 -301 -257 -160 -66 -7
-11 -23 -196 -308 -268 -172 -77 -14
-10 -21 -171 -266 -234 -153 -69 -14
-10 -19 -145 -224 -200 -135 -61 -13
-9 -17 -119 -182 -166 -116 -53 -12
-8 -16 -95 -139 -133 -98 -46 -12
-7 -14 -73 -106 -105 -82 -38 -11
-6 -12 -61 -88 -90 -71 -34 -10
-5 -11 -49 -70 -74 -60 -30 -9
-4 -9 -36 -53 -59 -49 -25 -8
-3 -8 -24 -35 -43 -37 -21 -7
-2 -6 -15 -22 -31 -29 -18 -6
-2 -6 -12 -19 -28 -26 -17 -7
-3 -6 -9 -15 -25 -23 -16 -7
-4 -7 -6 -11 -21 -21 -15 -8
-4 -7 -3 -8 -18 -18 -14 -9
-5 -8 1 -5 -15 -16 -13 -10
-5 -9 1 -5 -15 -16 -13 -11
-5 -10 1 -5 -15 -16 -13 -12
-6 -11 1 -5 -15 -16 -14 -13
-6 -12 1 -5 -15 -16 -14 -14
-7 -13 1 -6 -15 -17 -15 -15
-7 -13 1 -6 -14 -16 -15 -15
-7 -13 1 -5 -13 -15 -14 -14
-7 -12 2 -5 -12 -14 -14 -14
-7 -12 2 -4 -11 -13 -13 -13
-8 -11 3 -3 -10 -12 -12 -12
-8 -11 3 -3 -10 -12 -12 -12
-7 -11 3 -2 -10 -12 -12 -12
-7 -11 4 -2 -10 -11 -12 -12
-6 -11 4 0 -10 -11 -12 -12
-5 -10 5 1 -9 -10 -11 -12
-6 -10 5 1 -9 -10 -11 -12
-7 -10 5 1 -9 -10 -11 -12
-8 -11 5 1 -9 -10 -11 -12
-9 -11 5 1 -9 -10 -11 -12
-10 -12 4 0 -9 -11 -12 -13
-9 -12 5 0 -8 -11 -12 -12
-8 -11 6 1 -8 -11 -12 -12
-7 -11 7 1 -7 -11 -12 -11
-5 -10 9 2 -6 -11 -12 -10
-4 -9 10 3 -5 -10 -11 -9
-4 -9 10 3 -5 -10 -11 -9
-4 -9 10 3 -5 -10 -11 -9
-4 -8 9 4 -5 -10 -11 -9
-4 -8 9 4 -5 -10 -11 -9
-5 -7 8 5 -6 -9 -10 -9
-5 -7 8 5 -6 -9 -10 -9
-5 -7 8 5 -6 -9 -10 -9
-5 -7 8 6 -5 -9 -10 -9
-5 -7 8 6 -5 -9 -10 -9
-4 -7 9 7 -4 -8 -10 -9
-4 -7 9 8 -4 -8 -10 -9
-4 -7 9 8 -4 -8 -10 -8
-4 -7 9 9 -3 -7 -9 -8
-4 -7 9 10 -3 -7 -9 -7
-4 -6 10 11 -2 -6 -8 -6
-4 -6 10 11 -2 -6 -8 -6
-4 -6 10 11 -2 -6 -8 -6
-3 -5 10 11 -2 -6 -7 -6
-3 -5 10 11 -2 -6 -7 -6
-2 -4 10 11 0 -5 -6 -5
-2 -4 10 11 0 -5 -6 -4
-2 -4 10 11 0 -5 -6 -3
-2 -4 10 12 1 -5 -6 -2
-2 -4 10 12 1 -5 -6 0
0 -5 11 13 2 -4 -5 1
0 -5 11 14 2 -4 -5 1
0 -5 11 14 3 -3 -5 1
0 -5 11 15 3 -3 -4 1
0 -5 11 16 4 -2 -4 1
0 -5 12 17 5 0 -3 2
0 -5 12 18 5 0 -3 2
0 -5 12 18 5 0 -3 2
0 -4 12 19 6 1 -2 2
0 -4 12 20 6 1 -2 2
0 -3 13 21 7 2 0 3
2 -2 13 21 8 3 0 4
3 0 13 22 9 4 0 4
5 1 14 22 10 5 1 5
6 3 14 23 11 6 1 6
8 4 15 24 12 7 2 7
8 5 15 24 13 7 3 8
8 6 15 24 13 8 5 9
8 7 15 24 14 8 6 10
8 8 15 24 15 9 7 12
8 9 15 24 16 10 9 13
8 10 16 26 17 11 10 14
8 12 17 28 17 12 11 15
9 13 18 29 18 13 12 16
9 14 19 31 19 15 14 18
10 16 20 33 20 16 15 19
10 17 20 33 20 16 16 20
10 18 20 33 20 16 16 20
10 19 20 32 20 17 17 21
10 21 20 32 20 17 18 22
11 22 21 31 20 18 19 23
11 22 21 30 20 18 19 23
12 22 21 29 20 18 19 23
12 22 21 28 20 18 19 24
13 22 21 27 20 18 19 24
14 21 20 26 19 17 19 25
14 22 20 25 17 17 19 26
14 23 20 24 16 17 20 27
14 24 20 23 14 17 20 28
14 25 20 22 13 17 21 29
14 26 19 21 11 16 22 30
14 26 19 21 10 16 22 30
14 26 19 21 10 16 22 30
14 26 18 20 9 15 21 30
14 26 18 20 8 15 21 30
15 26 17 19 7 14 20 29
15 26 17 19 7 14 20 29
15 26 17 18 7 14 20 29
16 26 17 18 7 14 20 29
16 26 17 17 7 14 20 29
17 26 17 16 6 13 19 28
16 25 16 16 6 13 18 27
16 24 16 15 6 13 17 25
15 23 15 15 6 13 16 24
14 21 14 14 6 13 15 23
13 20 13 13 7 12 14 21
12 18 13 13 7 11 13 20
11 17 13 13 7 10 12 19
10 15 13 13 6 9 11 18
8 14 13 13 6 8 9 16
7 12 12 13 5 7 8 15
7 10 12 13 4 6 7 14
6 8 11 12 3 5 5 13
6 7 11 12 2 4 4 12
5 5 10 11 1 2 3 10
4 3 9 10 0 1 1 9
4 3 9 9 0 1 1 9
3 2 9 8 -2 1 1 9
2 2 8 7 -2 0 0 8
1 1 8 5 -3 0 0 8
0 0 7 4 -4 -2 -2 7
1 0 7 4 -4 -2 -2 7
2 0 7 4 -4 -2 -2 7
3 0 6 4 -5 -2 -3 7
4 0 6 4 -5 -2 -3 7
5 0 5 3 -6 -3 -4 6
4 -2 5 3 -6 -3 -4 6
2 -3 5 3 -6 -3 -4 5
1 -4 5 3 -6 -3 -4 5
0 -5 5 3 -6 -3 -4 4
-3 -6 4 2 -6 -4 -5 3
-3 -6 4 2 -6 -4 -5 3
-3 -6 4 2 -6 -4 -5 3
-2 -5 4 2 -6 -4 -5 3
-2 -5 4 2 -6 -4 -5 3
0 -4 4 1 -5 -4 -5 3
0 -4 4 1 -5 -4 -5 3
0 -4 4 1 -5 -4 -5 3
0 -4 4 1 -5 -3 -5 3
0 -4 4 1 -5 -3 -5 3
-2 -4 5 2 -4 -2 -4 4
-2 -4 5 2 -4 -2 -4 4
-2 -4 5 2 -3 -2 -4 4
-2 -5 5 3 -3 -2 -4 4
-2 -5 5 3 -2 -2 -4 4
-2 -6 6 4 0 -2 -5 4
-2 -6 6 4 0 -2 -5 4
-2 -6 6 4 0 -2 -5 4
-2 -6 6 4 0 -2 -5 4
-2 -6 6 4 0 -2 -5 4
0 -5 6 4 0 -3 -5 4
0 -5 6 4 0 -3 -5 4
0 -5 6 4 0 -3 -5 4
1 -4 6 4 0 -3 -5 4
1 -4 6 4 0 -3 -5 4
2 -3 5 5 1 -2 -6 3
2 -3 5 5 1 -2 -6 3
2 -3 5 5 1 -2 -6 3
1 -3 5 5 1 -2 -5 3
1 -3 5 5 1 -2 -5 3
0 -4 6 4 0 -3 -4 2
0 -4 6 4 0 -3 -4 2
0 -4 6 4 0 -3 -4 2
0 -4 6 4 0 -3 -5 2
0 -4 6 4 0 -3 -5 2
-2 -5 5 4 0 -2 -6 1
-2 -5 5 4 0 -2 -6 1
-2 -5 5 4 0 -2 -6 1
-2 -5 5 4 -2 -2 -6 2
-2 -5 5 4 -2 -2 -6 2
-2 -5 4 3 -3 -3 -7 3
-2 -5 4 3 -3 -3 -7 3
-2 -5 4 3 -3 -3 -7 3
-2 -5 3 2 -3 -3 -7 2
-2 -5 3 2 -3 -3 -7 2
-2 -5 2 1 -4 -4 -7 1
-2 -5 2 1 -4 -4 -7 1
-2 -5 2 0 -4 -4 -7 1
-2 -5 2 0 -4 -4 -7 1
-2 -5 2 -2 -4 -4 -7 1
-3 -6 2 -3 -4 -4 -7 2
-3 -6 2 -3 -4 -4 -7 2
-3 -6 2 -3 -4 -4 -7 2
-3 -6 2 -3 -5 -5 -8 1
-3 -6 2 -3 -5 -5 -8 1
-2 -5 1 -4 -6 -6 -9 0
-2 -5 1 -4 -6 -6 -9 0
-2 -5 1 -4 -6 -6 -9 0
-2 -5 1 -4 -6 -6 -9 0
-2 -5 1 -4 -6 -6 -9 0
-2 -5 1 -5 -6 -6 -9 -2
-2 -5 1 -5 -6 -6 -9 -2
-2 -5 1 -5 -6 -6 -9 -2
-3 -5 1 -5 -7 -6 -9 -2
-3 -5 1 -5 -7 -6 -9 -2
-4 -5 1 -5 -8 -7 -10 0
-4 -5 1 -5 -8 -7 -10 0
-3 -5 2 -4 -7 -7 -9 0
-2 -4 3 -3 -7 -7 -9 0
0 -4 4 -2 -6 -7 -8 0
1 -3 5 0 -5 -7 -7 -2
1 -3 5 0 -5 -7 -7 -2
2 -3 5 0 -5 -6 -7 -2
2 -2 6 0 -4 -6 -7 -2
3 -2 6 0 -4 -5 -7 -2
4 0 7 1 -3 -4 -7 -2
4 0 7 1 -3 -3 -7 -2
4 0 8 2 -2 -2 -7 -2
4 0 9 2 0 0 -6 0
4 0 10 3 1 1 -6 0
4 1 11 4 2 2 -5 1
4 1 11 4 2 2 -5 1
4 2 11 4 2 2 -5 1
4 2 11 5 3 2 -5 1
4 3 11 5 3 2 -5 1
5 4 10 6 4 2 -4 2
6 4 7 6 4 2 -4 2
8 4 4 5 4 2 -4 2
10 4 2 5 4 2 -3 3
11 4 -2 4 4 2 -3 3
13 4 -5 3 3 2 -2 4
13 4 -5 2 2 2 -2 4
13 4 -5 1 1 1 -2 4
13 3 -5 0 0 1 -2 4
13 3 -5 -2 -2 0 -2 4
12 2 -6 -4 -3 -2 -2 3
11 2 -6 -4 -3 -2 -2 3
10 2 -6 -5 -4 -3 -3 2
9 2 -6 -5 -4 -3 -3 1
8 2 -6 -6 -5 -4 -4 0
7 1 -6 -7 -6 -5 -5 -2
7 0 -6 -7 -6 -5 -5 -2
7 -2 -6 -7 -6 -5 -5 -2
7 -3 -7 -7 -6 -6 -5 -2
7 -4 -7 -7 -6 -6 -5 -2
7 -6 -8 -7 -7 -7 -5 -3
6 -6 -7 -7 -7 -7 -5 -3
4 -6 -6 -7 -7 -7 -5 -3
3 -6 -5 -7 -7 -7 -5 -4
2 -6 -4 -7 -7 -7 -5 -4
0 -5 -2 -6 -6 -6 -5 -5
-2 -5 -2 -6 -6 -7 -6 -6
-4 -5 -2 -7 -7 -8 -7 -7
-6 -6 -2 -7 -8 -9 -8 -8
-7 -6 -2 -8 -9 -10 -9 -9
-9 -7 -2 -9 -10 -11 -11 -11
-9 -7 -2 -9 -10 -11 -11 -11
-9 -7 -2 -9 -10 -11 -11 -11
-9 -7 -2 -9 -10 -11 -11 -11
-9 -7 -2 -9 -10 -11 -11 -11
-9 -6 0 -9 -10 -10 -11 -11
-9 -6 0 -9 -10 -10 -11 -11
-9 -6 0 -9 -10 -10 -11 -11
-9 -7 0 -9 -10 -10 -11 -12
-9 -7 0 -9 -10 -10 -11 -12
-10 -8 -2 -10 -10 -10 -12 -13
-10 -8 -2 -10 -10 -10 -12 -13
-10 -8 -2 -10 -10 -10 -12 -13
-10 -8 -2 -9 -10 -10 -12 -13
-10 -8 -2 -9 -10 -10 -12 -13
-11 -7 0 -8 -9 -9 -11 -12
-11 -7 3 -2 -4 -7 -11 -13
-11 -7 6 4 2 -4 -10 -14
-11 -7 10 9 7 -2 -10 -15
-11 -7 13 15 11 1 -9 -16
-10 -6 16 23 20 7 -6 -16
-4 3 24 54 60 39 17 -4
2 12 32 85 100 71 38 8
8 21 40 115 140 104 60 20
14 30 49 146 180 136 82 31
20 39 56 174 217 167 104 44
36 52 56 182 234 185 125 60
53 64 55 190 252 203 145 75
69 77 55 197 269 222 164 91
86 90 54 205 286 240 185 106
100 99 49 202 290 248 198 118
84 81 8 112 192 176 152 95
67 63 -32 22 93 102 105 72
51 45 -73 -68 -6 29 59 50
34 26 -113 -158 -104 -44 13 26
20 10 -150 -239 -193 -110 -30 6
14 3 -158 -251 -206 -121 -38 1
8 -4 -165 -263 -220 -134 -48 -4
2 -11 -174 -274 -234 -145 -57 -9
-4 -18 -181 -285 -247 -156 -66 -13
-10 -24 -186 -293 -257 -165 -73 -18
-10 -21 -160 -248 -221 -145 -64 -17
-10 -18 -135 -205 -185 -123 -55 -16
-10 -15 -109 -162 -149 -102 -46 -15
-10 -12 -83 -118 -114 -81 -36 -14
-11 -9 -59 -78 -80 -62 -27 -13
-11 -9 -50 -65 -69 -54 -25 -13
-10 -8 -39 -52 -57 -46 -22 -13
-9 -8 -29 -38 -45 -38 -19 -13
-8 -7 -19 -25 -33 -30 -17 -13
-7 -6 -10 -13 -22 -23 -14 -12
-7 -6 -8 -11 -20 -21 -14 -13
-8 -6 -6 -9 -18 -19 -14 -14
-9 -7 -4 -7 -16 -17 -14 -16
-10 -7 -2 -5 -13 -15 -14 -17
-11 -8 1 -3 -11 -13 -14 -19
-11 -8 1 -2 -11 -13 -14 -19
-11 -8 1 0 -10 -13 -14 -19
-11 -8 2 1 -9 -13 -13 -19
-11 -8 2 2 -8 -13 -13 -19
-12 -9 3 3 -7 -12 -12 -19
-12 -9 3 3 -7 -12 -12 -19
-12 -9 3 3 -7 -12 -12 -19
-12 -10 3 3 -7 -12 -12 -19
-12 -10 3 3 -7 -12 -12 -19
-12 -11 4 4 -6 -11 -12 -20
-12 -11 4 4 -6 -11 -12 -20
-12 -11 4 4 -5 -11 -12 -20
-11 -10 5 4 -5 -11 -12 -20
-11 -10 5 4 -4 -11 -12 -20
-10 -9 6 4 -3 -10 -11 -20
-10 -9 6 4 -3 -10 -11 -20
-10 -9 6 4 -3 -10 -11 -20
-10 -10 6 3 -4 -10 -11 -19
-10 -10 6 3 -4 -10 -11 -19
-10 -11 7 2 -5 -10 -10 -18
-10 -11 7 2 -5 -10 -10 -18
-10 -10 7 3 -4 -10 -10 -18
-10 -10 6 4 -4 -9 -10 -18
-10 -9 6 5 -3 -9 -10 -18
-11 -8 5 6 -2 -8 -9 -18
-11 -8 5 6 -2 -8 -9 -18
-11 -8 5 6 -2 -8 -9 -18
-10 -7 6 6 0 -8 -9 -19
-10 -7 6 6 0 -8 -9 -19
-9 -6 7 6 1 -7 -10 -20
-9 -6 7 6 1 -7 -10 -20
-9 -6 7 7 1 -6 -10 -20
-9 -6 7 8 1 -5 -9 -19
-9 -6 7 9 1 -4 -9 -19
-8 -7 8 10 2 -3 -8 -18
-8 -7 8 10 2 -3 -8 -18
-8 -7 8 10 2 -3 -8 -18
-8 -7 8 10 2 -4 -8 -19
-8 -7 8 10 2 -4 -8 -19
-9 -8 8 11 3 -5 -8 -20
-9 -8 8 11 3 -5 -7 -20
-9 -8 9 11 3 -4 -6 -19
-9 -7 10 11 3 -3 -5 -19
-9 -7 11 11 3 -2 -4 -18
-8 -6 12 11 4 0 -3 -17
-8 -6 12 11 5 0 -3 -17
-8 -5 12 11 6 0 -3 -17
-7 -4 12 12 7 0 -4 -17
-7 -3 12 12 8 0 -4 -17
-6 -2 12 13 9 1 -5 -17
-6 -2 12 13 9 1 -5 -17
-6 -2 12 14 9 1 -4 -16
-6 -2 12 15 9 1 -3 -15
-6 -2 12 16 9 1 -2 -14
-5 -3 13 17 10 1 0 -13
-5 -3 13 17 10 2 0 -13
-4 -2 14 17 11 3 1 -13
-3 -2 14 18 11 5 2 -12
-2 0 15 18 12 6 3 -12
0 1 16 19 13 8 4 -11
0 1 16 20 14 8 4 -11
0 1 16 21 15 8 4 -11
0 1 16 22 16 8 4 -11
0 1 16 23 17 8 4 -11
0 1 16 24 18 8 4 -11
0 2 16 24 18 8 5 -11
1 3 17 25 19 9 6 -10
1 4 17 26 19 9 7 -9
2 5 18 27 20 10 8 -8
3 7 19 28 21 11 9 -7
3 8 20 29 22 12 10 -6
4 9 21 30 23 13 11 -5
5 11 22 31 24 14 13 -3
6 12 23 32 25 15 14 -2
7 14 24 34 26 17 16 1
7 15 24 34 26 17 16 2
7 16 24 34 26 17 16 3
8 18 24 34 26 17 17 4
8 19 24 34 26 17 17 5
9 21 23 34 25 18 18 6
9 21 23 34 25 18 19 6
10 21 24 34 24 19 20 6
10 21 24 33 24 19 21 6
11 21 25 33 23 20 22 6
12 22 26 32 22 21 23 7
12 22 26 31 22 21 23 7
12 23 25 30 21 20 23 7
12 23 25 28 20 20 23 7
12 24 24 27 19 19 23 7
12 25 23 25 18 18 22 7
12 25 23 25 18 18 22 7
12 25 23 24 18 19 22 8
12 25 23 23 17 20 23 8
12 25 23 22 17 21 23 9
11 26 23 21 16 22 24 10
11 26 23 21 16 22 24 10
11 25 23 21 16 21 24 10
11 24 22 20 16 20 24 10
11 23 22 20 16 19 24 10
11 22 21 19 16 18 23 9
11 21 21 19 16 18 22 8
11 19 20 19 16 18 21 6
10 18 19 19 16 17 19 4
10 16 18 19 16 17 18 2
9 14 17 18 16 16 16 0
9 14 17 17 16 15 15 -2
8 13 16 16 15 14 14 -3
8 12 16 15 14 13 12 -5
7 11 15 14 13 12 11 -6
6 10 14 13 12 10 9 -8
6 8 14 13 12 10 9 -8
5 6 13 12 11 9 8 -8
4 4 12 12 11 9 8 -9
3 2 11 11 10 8 7 -9
2 0 10 10 9 7 6 -10
2 0 10 9 8 6 5 -10
1 0 9 8 7 5 4 -11
1 0 9 6 6 4 3 -11
0 0 8 5 5 3 2 -12
-2 0 7 3 3 2 1 -13
-2 0 7 3 3 2 1 -13
-2 0 7 3 3 2 1 -13
0 -2 7 3 3 2 1 -13
0 -2 7 3 3 2 1 -13
0 -2 7 3 3 2 1 -13
1 -3 6 3 2 1 0 -14
0 -3 6 3 2 1 0 -14
0 -4 6 3 2 0 -2 -15
-2 -4 6 3 2 0 -2 -15
-2 -4 6 3 2 0 -2 -15
-3 -5 5 3 1 -2 -3 -16
-3 -5 5 3 1 -2 -3 -16
-3 -5 5 3 1 -2 -3 -16
-3 -5 5 3 1 -2 -3 -16
-3 -5 5 3 1 -2 -3 -16
-2 -5 6 4 2 -2 -3 -15
-2 -5 6 4 2 -2 -3 -15
-2 -5 7 4 2 -2 -3 -15
-2 -5 7 4 2 -2 -3 -15
-2 -5 7 4 2 -2 -3 -15
-3 -5 8 5 3 0 -3 -14
-3 -5 8 5 3 0 -3 -14
-3 -5 8 5 3 0 -3 -14
-3 -5 8 5 3 0 -3 -14
-3 -5 8 5 3 0 -3 -14
-3 -6 9 5 4 0 -4 -14
-3 -5 9 5 4 0 -4 -14
-3 -5 9 5 4 0 -4 -14
-3 -4 9 5 4 0 -4 -14
-3 -4 9 5 4 0 -4 -14
-3 -3 9 5 5 1 -4 -15
-3 -3 9 5 5 1 -4 -15
-3 -3 9 5 5 1 -4 -15
-3 -3 9 5 5 1 -4 -15
-3 -3 9 5 5 1 -4 -15
-4 -4 9 5 6 1 -4 -14
-4 -4 9 5 6 1 -4 -14
-3 -4 9 5 6 1 -4 -14
-3 -4 9 5 6 1 -4 -14
-3 -4 9 5 6 1 -4 -14
-2 -5 9 5 5 1 -4 -13
-2 -5 9 5 5 1 -4 -13
-3 -5 9 5 5 1 -4 -13
-3 -5 9 5 5 1 -4 -13
-3 -5 9 5 5 1 -4 -13
-4 -6 8 4 5 0 -5 -13
-3 -6 8 4 4 0 -5 -13
-3 -6 8 4 4 0 -5 -13
-2 -6 8 4 3 0 -5 -13
-2 -6 8 4 3 0 -5 -13
0 -6 7 3 2 0 -5 -13
0 -6 7 3 2 0 -5 -13
-2 -6 7 2 2 0 -5 -13
-2 -6 7 2 2 0 -5 -13
-2 -6 7 2 2 0 -5 -13
-3 -6 7 1 2 -2 -5 -13
-3 -6 7 0 1 -2 -5 -13
-3 -6 6 0 0 -3 -6 -13
-3 -6 6 -2 -2 -3 -6 -13
-3 -6 6 -2 -2 -3 -6 -13
-3 -6 5 -3 -3 -4 -7 -13
-3 -6 5 -3 -3 -4 -7 -13
-3 -6 5 -3 -3 -4 -7 -13
-3 -6 5 -3 -3 -4 -7 -13
-3 -6 5 -3 -3 -4 -7 -13
-2 -5 5 -3 -3 -4 -7 -13
-2 -5 5 -3 -3 -4 -7 -13
-3 -5 5 -3 -3 -4 -8 -13
-3 -5 5 -3 -3 -4 -8 -13
-3 -5 5 -3 -3 -4 -8 -13
-4 -6 6 -4 -3 -4 -9 -12
-4 -6 6 -4 -3 -4 -9 -12
-4 -6 7 -3 -3 -3 -9 -12
-4 -6 7 -3 -3 -3 -9 -12
-4 -6 7 -3 -3 -3 -9 -12
-3 -6 8 -2 -2 -2 -9 -12
-3 -6 8 -2 -2 -2 -9 -12
-2 -5 8 -2 -2 -2 -8 -12
-2 -5 8 -2 -2 -2 -8 -12
-2 -5 8 -2 -2 -2 -8 -12
0 -4 9 1 1 -2 -7 -11
1 -4 9 2 2 0 -6 -11
1 -4 9 4 3 1 -5 -11
2 -4 9 5 4 2 -4 -11
2 -4 9 6 5 2 -4 -11
3 -2 10 7 6 3 -3 -10
3 0 11 7 6 3 -3 -9
3 1 12 7 6 4 -2 -8
3 2 13 7 6 4 -2 -7
3 3 13 7 6 4 -2 -7
4 4 12 7 7 5 0 -6
5 4 9 6 7 5 0 -5
7 4 7 5 6 5 1 -4
8 4 4 4 6 5 1 -3
9 4 2 4 6 5 1 -2
10 3 1 2 5 4 2 0
10 2 0 1 4 4 2 0
11 2 -2 0 3 4 2 0
11 1 -3 -2 2 4 2 0
11 1 -4 -3 1 4 2 0
12 0 -5 -4 0 3 2 0
12 0 -5 -4 0 2 1 0
11 0 -5 -5 -2 2 1 0
11 0 -5 -5 -2 1 0 0
11 0 -5 -5 -2 1 0 0
10 -2 -4 -6 -3 0 -2 -2
10 -2 -4 -7 -4 0 -3 -2
10 -2 -4 -7 -4 -2 -3 -2
10 -2 -4 -8 -5 -2 -4 -2
10 -2 -4 -8 -5 -2 -4 -2
8 -3 -5 -9 -6 -3 -5 -3
7 -3 -4 -9 -6 -3 -5 -3
6 -4 -3 -9 -6 -4 -6 -3
5 -4 -2 -9 -6 -4 -6 -3
4 -4 0 -9 -6 -4 -6 -3
1 -5 1 -8 -6 -5 -7 -4
-2 -6 1 -9 -7 -6 -8 -5
-4 -7 1 -10 -8 -7 -8 -5
-7 -8 1 -11 -9 -8 -9 -6
-9 -9 1 -11 -10 -8 -9 -6
-10 -10 1 -12 -11 -9 -10 -7
-10 -10 1 -12 -11 -9 -10 -7
-9 -10 1 -12 -11 -9 -11 -8
-9 -10 1 -12 -11 -9 -11 -8
-9 -10 1 -12 -11 -9 -11 -8
-8 -10 1 -11 -12 -10 -12 -9
-8 -10 1 -11 -12 -10 -12 -9
-8 -10 1 -11 -12 -10 -12 -9
-8 -10 1 -11 -12 -10 -12 -9
-8 -10 1 -11 -12 -10 -12 -9
-8 -10 2 -11 -13 -10 -13 -9
-8 -10 2 -11 -12 -10 -13 -9
-8 -10 2 -10 -12 -10 -13 -9
-8 -10 2 -10 -11 -10 -13 -9
-8 -10 2 -10 -11 -10 -13 -9
-8 -10 3 -7 -9 -9 -12 -9
-8 -10 5 -5 -8 -9 -12 -9
-8 -10 6 -3 -6 -9 -12 -9
-8 -10 8 1 -5 -9 -12 -9
-8 -10 9 3 -4 -9 -12 -9
-6 -7 14 21 21 13 0 -4
-3 0 18 42 49 35 15 4
1 5 23 62 76 59 30 11
5 10 27 82 104 81 45 18
8 16 32 103 131 105 60 25
22 28 40 131 173 140 88 42
37 42 49 159 216 176 116 59
53 56 58 188 259 213 145 77
68 69 66 216 302 248 175 95
84 82 75 244 345 284 203 112
82 77 52 188 280 238 179 104
77 69 24 118 200 179 146 91
73 60 -5 49 120 120 112 78
68 52 -33 -21 40 61 79 65
64 44 -61 -90 -39 2 46 52
50 31 -89 -137 -90 -34 20 38
34 19 -115 -181 -135 -68 -5 26
19 7 -142 -225 -181 -102 -30 13
4 -6 -169 -269 -226 -136 -55 1
-12 -18 -195 -313 -272 -170 -79 -13
-14 -20 -180 -286 -253 -161 -77 -15
-14 -20 -157 -249 -222 -145 -70 -14
-14 -19 -135 -212 -191 -130 -63 -14
-14 -19 -112 -174 -161 -113 -56 -13
-14 -19 -89 -136 -131 -98 -49 -13
-12 -17 -74 -112 -110 -83 -43 -11
-11 -14 -60 -92 -92 -70 -37 -10
-10 -12 -46 -70 -73 -57 -31 -9
-9 -10 -32 -49 -54 -44 -25 -8
-8 -8 -18 -27 -35 -30 -19 -7
-7 -7 -14 -21 -29 -26 -18 -6
-8 -8 -11 -18 -25 -24 -18 -6
-8 -8 -8 -14 -22 -21 -18 -7
-9 -9 -5 -11 -18 -18 -18 -7
-9 -9 -2 -7 -14 -16 -18 -7
-10 -10 0 -6 -13 -15 -17 -8
-10 -10 1 -6 -12 -14 -17 -8
-10 -11 1 -5 -12 -14 -16 -9
-10 -11 2 -5 -11 -13 -16 -9
-10 -11 2 -5 -11 -13 -16 -9
-11 -12 3 -4 -10 -12 -15 -10
-11 -12 3 -4 -10 -12 -15 -10
-11 -11 3 -4 -9 -12 -15 -10
-11 -11 3 -4 -9 -12 -15 -10
-11 -11 3 -4 -9 -12 -15 -10
-10 -10 3 -3 -8 -11 -14 -10
-10 -10 3 -3 -8 -11 -14 -10
-10 -10 3 -3 -8 -10 -14 -10
-10 -10 3 -3 -8 -10 -14 -10
-10 -10 3 -3 -8 -10 -14 -10
-9 -10 3 -3 -7 -9 -14 -10
-9 -10 4 -3 -7 -9 -14 -10
-9 -9 4 -3 -6 -9 -13 -10
-9 -9 5 -3 -6 -9 -13 -10
-9 -9 5 -3 -6 -9 -13 -10
-10 -8 6 -2 -5 -8 -12 -10
-10 -8 6 -2 -5 -8 -12 -10
-10 -9 6 -2 -5 -8 -12 -10
-10 -9 6 -2 -5 -8 -12 -10
-10 -9 6 -2 -5 -8 -12 -10
-10 -10 5 -2 -5 -7 -13 -9
-10 -10 5 -2 -5 -7 -13 -9
-9 -10 5 0 -4 -7 -12 -9
-9 -10 5 0 -4 -7 -12 -9
-9 -10 5 0 -4 -7 -12 -9
-8 -9 5 1 -3 -7 -11 -9
-8 -9 5 1 -3 -7 -11 -9
-9 -9 5 1 -3 -6 -11 -9
-9 -9 5 1 -3 -6 -11 -9
-9 -9 5 1 -3 -6 -11 -9
-10 -10 5 1 -2 -5 -12 -9
-9 -9 5 2 -2 -5 -11 -9
-9 -9 6 2 -2 -4 -11 -8
-8 -8 6 3 -2 -4 -10 -8
-8 -8 6 3 -2 -4 -10 -8
-7 -7 7 4 0 -3 -9 -7
-6 -7 7 4 0 -3 -9 -6
-6 -7 7 4 1 -3 -9 -6
-5 -7 7 4 1 -3 -9 -5
-5 -7 7 4 1 -3 -9 -5
-4 -6 7 4 2 -3 -10 -4
-4 -6 7 5 2 -2 -9 -4
-5 -5 7 5 2 -2 -8 -4
-5 -5 7 6 2 0 -7 -4
-5 -5 7 6 2 0 -7 -4
-6 -4 6 7 3 1 -6 -3
-5 -4 6 7 4 1 -6 -3
-5 -4 7 8 5 1 -6 -3
-4 -4 7 8 6 1 -6 -3
-4 -4 7 8 7 1 -6 -3
-3 -3 8 9 8 2 -5 -2
-3 -3 8 10 9 3 -4 0
-3 -3 8 10 9 4 -3 0
-3 -3 8 11 10 5 -2 1
-3 -3 8 11 10 5 0 1
-4 -2 9 12 11 6 1 2
-3 0 9 13 12 6 1 3
-2 0 9 14 13 6 2 3
0 1 9 15 14 6 2 4
1 1 9 16 14 6 2 4
2 3 9 17 15 7 3 5
3 4 9 17 16 8 4 6
3 5 10 18 16 9 5 7
4 7 10 18 17 10 6 8
4 8 10 18 17 11 7 9
5 9 11 19 18 12 8 10
5 10 11 20 19 13 9 11
5 11 11 21 19 14 10 12
5 12 11 22 20 15 11 13
5 13 11 23 20 16 11 14
6 15 11 24 21 17 12 15
7 16 12 25 21 17 14 17
8 17 12 25 21 18 15 18
9 19 13 26 21 18 16 19
10 20 13 26 21 18 17 20
11 21 14 27 22 19 18 21
11 21 14 27 22 19 18 21
12 21 14 26 22 19 18 22
12 21 14 26 22 19 18 22
12 21 14 26 22 19 18 22
13 22 15 25 21 20 19 23
13 23 15 23 20 20 19 23
13 24 14 22 19 20 20 24
13 25 14 21 18 20 20 24
13 25 14 20 18 20 20 24
14 26 13 19 17 20 21 25
14 26 13 18 16 20 21 25
14 26 13 17 16 20 21 26
14 26 13 16 15 20 21 26
14 26 13 15 15 20 21 26
14 27 12 14 14 19 21 27
13 27 12 14 14 19 21 27
13 26 13 14 14 19 21 26
12 26 13 14 14 19 21 26
12 26 13 14 14 19 21 26
11 24 14 13 13 18 20 24
11 22 13 13 13 18 19 23
10 20 12 12 13 17 18 22
10 19 11 12 13 17 16 20
10 17 10 12 13 17 15 19
9 16 9 11 13 16 14 17
7 15 9 11 12 15 12 16
6 14 9 10 11 14 11 15
5 13 9 10 10 13 10 13
4 13 9 10 10 12 9 12
3 11 10 9 9 11 8 11
2 9 10 9 9 10 6 10
2 8 10 8 8 9 5 9
1 6 10 8 8 8 4 8
1 4 10 8 8 8 3 7
0 3 9 7 7 7 2 6
-2 3 8 6 5 6 1 5
-2 3 8 5 4 5 0 5
-3 3 7 4 3 4 -2 4
-3 3 7 4 2 3 -2 4
-4 2 6 3 1 2 -3 3
-4 1 6 3 1 1 -3 2
-4 1 5 2 1 0 -4 2
-4 0 5 2 1 -2 -4 1
-4 0 5 2 1 -2 -4 1
-4 -2 4 1 0 -3 -5 0
-4 -2 4 1 0 -3 -5 0
-4 -2 4 1 0 -2 -5 0
-4 -2 4 1 0 -2 -5 0
-4 -2 4 1 0 -2 -5 0
-4 -3 5 0 -2 0 -4 0
-4 -3 5 0 -2 0 -4 0
-4 -4 5 0 -2 0 -5 0
-4 -4 5 0 -2 0 -5 0
-4 -4 5 0 -2 0 -5 0
-4 -5 4 0 -3 0 -6 -2
-4 -5 4 0 -3 0 -6 -2
-4 -5 4 1 -2 0 -5 -2
-4 -5 4 1 -2 0 -5 -2
-4 -5 4 1 -2 0 -5 -2
-5 -5 5 2 0 1 -4 -2
-5 -5 5 2 0 1 -4 -2
-5 -5 5 2 0 1 -4 -2
-5 -5 5 2 0 1 -4 -2
-5 -5 5 2 0 1 -4 -2
-5 -4 4 2 1 1 -5 -2
-5 -4 4 2 1 1 -5 -2
-4 -4 4 2 1 1 -5 -2
-4 -4 4 2 1 1 -5 -2
-4 -4 4 2 1 1 -5 -2
-3 -4 3 3 0 1 -6 -3
-4 -4 3 3 0 0 -6 -3
-4 -5 3 3 0 0 -6 -3
-5 -5 3 3 0 -2 -6 -3
-5 -5 3 3 0 -2 -6 -3
-6 -6 3 2 0 -3 -6 -3
-6 -6 3 2 0 -2 -6 -3
-6 -6 4 2 0 -2 -5 -3
-6 -6 4 2 0 0 -5 -3
-6 -6 4 2 0 0 -5 -3
-6 -6 5 3 1 1 -4 -4
-6 -6 4 3 1 1 -4 -4
-6 -6 4 2 1 0 -5 -4
-6 -6 3 2 1 0 -5 -4
-6 -6 3 2 1 0 -5 -4
-6 -6 2 1 0 -2 -6 -3
-6 -6 2 1 0 -2 -6 -3
-5 -6 2 1 0 -2 -6 -3
-5 -6 2 1 0 -2 -6 -3
-5 -6 2 1 0 -2 -6 -3
-4 -5 3 1 0 -2 -6 -4
-4 -5 3 1 0 -2 -6 -4
-4 -5 3 1 0 -2 -6 -4
-4 -5 3 1 0 -2 -6 -4
-4 -5 3 1 0 -2 -6 -4
-4 -4 2 0 0 -2 -5 -4
-4 -4 2 0 0 -2 -5 -4
-4 -5 2 0 0 -2 -5 -4
-4 -5 2 0 0 -2 -5 -4
-4 -5 2 0 0 -2 -5 -4
-4 -6 2 -2 -2 -3 -6 -4
-4 -6 2 -2 -2 -3 -6 -4
-4 -6 1 -3 -3 -3 -6 -4
-4 -6 1 -3 -3 -3 -6 -4
-4 -6 1 -3 -3 -3 -6 -4
-5 -7 0 -4 -4 -4 -7 -5
-5 -7 0 -4 -4 -4 -7 -5
-5 -7 0 -4 -4 -5 -7 -6
-5 -7 0 -4 -4 -5 -7 -6
-5 -7 0 -4 -4 -5 -7 -6
-5 -7 1 -4 -5 -6 -8 -7
-5 -7 1 -4 -5 -6 -8 -7
-5 -7 1 -4 -5 -6 -8 -7
-5 -7 1 -4 -5 -6 -8 -7
-5 -7 1 -4 -5 -6 -8 -7
-5 -8 1 -5 -6 -5 -8 -6
-5 -8 1 -5 -6 -5 -8 -6
-4 -7 1 -4 -5 -5 -8 -5
-4 -7 1 -4 -5 -5 -8 -5
-4 -7 1 -4 -5 -5 -8 -5
-3 -6 2 -3 -4 -4 -8 -4
-3 -6 3 -2 -3 -4 -7 -4
-2 -6 3 0 -3 -3 -6 -4
-2 -6 4 1 -2 -3 -6 -4
-2 -6 4 2 -2 -3 -5 -4
0 -5 5 3 0 -2 -4 -3
0 -5 7 4 2 1 -3 -2
0 -4 8 5 3 2 -3 -2
0 -4 10 5 4 3 -2 0
0 -4 11 6 5 4 -2 0
0 -3 12 7 6 5 0 1
0 -3 12 7 6 5 0 1
0 -2 11 6 6 4 0 1
0 -2 11 6 6 4 0 1
0 -2 11 6 6 4 0 1
1 0 9 5 6 3 -2 0
3 -2 6 3 5 3 -2 0
4 -2 4 2 5 3 -2 0
6 -3 2 0 4 3 -2 0
7 -3 -2 -2 4 3 -2 0
8 -4 -3 -3 3 2 0 1
8 -4 -4 -4 2 1 0 1
8 -4 -4 -5 1 1 0 1
8 -4 -5 -5 0 0 0 1
8 -4 -5 -6 -2 0 0 1
9 -4 -6 -7 -3 -2 0 1
9 -4 -6 -7 -3 -2 0 1
9 -4 -6 -7 -3 -2 0 1
9 -4 -6 -7 -3 -2 0 1
9 -4 -6 -7 -3 -2 0 1
8 -4 -5 -8 -4 -3 -2 0
8 -5 -5 -8 -4 -4 -3 0
8 -6 -5 -8 -5 -4 -4 -2
8 -6 -5 -8 -5 -5 -4 -2
8 -7 -5 -8 -5 -5 -5 -2
9 -8 -6 -9 -6 -6 -6 -3
7 -8 -5 -9 -6 -6 -6 -4
6 -8 -4 -9 -6 -6 -6 -4
4 -8 -3 -9 -6 -6 -6 -5
3 -8 -2 -9 -6 -6 -6 -5
2 -9 0 -10 -7 -7 -7 -6
0 -9 0 -10 -7 -7 -8 -7
-2 -9 0 -10 -8 -8 -9 -8
-4 -9 0 -10 -8 -8 -9 -9
-5 -9 0 -10 -8 -8 -10 -10
-6 -9 1 -9 -9 -9 -11 -11
-7 -9 1 -9 -9 -9 -11 -11
-8 -10 1 -10 -10 -10 -12 -11
-8 -11 1 -10 -10 -10 -12 -11
-9 -11 1 -10 -10 -10 -12 -11
-10 -12 1 -11 -11 -11 -13 -12
-10 -12 1 -11 -11 -11 -13 -12
-10 -11 1 -11 -11 -11 -13 -12
-10 -11 1 -11 -11 -11 -13 -12
-10 -11 1 -11 -11 -11 -13 -12
-9 -10 0 -10 -10 -11 -13 -12
-9 -10 0 -10 -10 -11 -13 -12
-9 -10 1 -9 -10 -11 -12 -12
-9 -10 1 -9 -10 -11 -11 -12
-9 -10 1 -9 -10 -11 -11 -12
-9 -10 3 -6 -7 -10 -10 -11
-9 -10 5 -2 -3 -10 -10 -11
-9 -11 8 4 2 -10 -10 -12
-9 -11 10 8 5 -10 -10 -13
-9 -11 13 12 9 -10 -10 -13
-4 -7 18 32 35 12 4 -7
5 3 26 62 73 46 25 5
13 12 34 91 110 78 47 16
21 21 42 120 148 111 67 27
29 29 50 149 186 144 89 39
40 40 53 167 214 170 112 53
53 53 55 178 235 192 137 69
66 65 56 188 257 215 160 85
78 76 58 198 278 236 185 100
92 89 59 210 300 259 210 115
89 84 35 158 246 221 188 108
74 67 -3 72 150 147 140 86
60 50 -41 -14 54 74 92 63
46 33 -79 -101 -43 2 44 40
31 16 -118 -187 -139 -72 -5 18
22 5 -138 -228 -185 -108 -30 7
14 -4 -148 -243 -203 -122 -41 1
6 -12 -157 -259 -221 -137 -54 -6
-3 -20 -168 -274 -238 -151 -65 -12
-11 -29 -177 -289 -256 -165 -76 -17
-14 -30 -166 -270 -241 -159 -76 -19
-13 -26 -142 -228 -205 -138 -66 -17
-11 -22 -117 -186 -171 -117 -57 -14
-10 -19 -94 -144 -136 -96 -47 -12
-9 -15 -69 -102 -100 -75 -37 -9
-8 -13 -54 -77 -79 -62 -31 -8
-8 -12 -45 -63 -67 -53 -28 -8
-8 -11 -34 -49 -55 -45 -25 -8
-8 -10 -24 -34 -43 -35 -22 -8
-8 -9 -14 -21 -30 -27 -19 -8
-7 -8 -9 -14 -24 -22 -17 -8
-7 -8 -7 -11 -21 -21 -17 -9
-7 -9 -4 -9 -18 -19 -16 -10
-7 -9 -2 -6 -15 -18 -16 -10
-7 -9 2 -3 -13 -16 -16 -11
-7 -10 3 -2 -11 -15 -15 -12
-7 -10 3 -2 -11 -14 -15 -12
-7 -10 3 -2 -11 -13 -15 -12
-7 -10 3 -2 -11 -13 -15 -12
-7 -10 3 -2 -11 -12 -15 -12
-8 -10 2 0 -10 -11 -14 -13
-8 -10 2 0 -10 -11 -14 -13
-8 -10 2 0 -10 -11 -14 -13
-8 -10 2 0 -10 -11 -14 -13
-8 -10 2 0 -10 -11 -14 -13
-9 -10 3 -2 -9 -10 -13 -13
-9 -10 3 -2 -8 -10 -13 -13
-9 -10 3 0 -7 -9 -12 -12
-9 -10 3 0 -7 -9 -11 -12
-9 -10 3 0 -6 -9 -11 -12
-8 -9 4 1 -5 -8 -10 -11
-8 -9 4 1 -5 -8 -10 -11
-8 -9 4 2 -5 -8 -10 -11
-8 -9 4 2 -5 -8 -10 -11
-8 -9 4 2 -5 -8 -10 -11
-8 -9 5 3 -4 -7 -10 -10
-8 -9 6 3 -4 -7 -10 -10
-8 -9 7 3 -4 -7 -10 -10
-8 -9 7 3 -4 -7 -10 -10
-8 -9 8 3 -4 -7 -10 -10
-8 -9 9 4 -3 -8 -10 -9
-8 -9 9 4 -3 -8 -10 -9
-8 -9 8 4 -3 -8 -10 -9
-8 -9 7 4 -3 -8 -10 -9
-8 -9 7 4 -3 -8 -10 -9
-8 -8 6 4 -3 -8 -10 -9
-8 -8 6 4 -3 -8 -10 -9
-8 -8 6 5 -2 -7 -10 -8
-8 -8 6 6 -2 -6 -10 -8
-8 -8 6 6 -2 -6 -10 -8
-7 -7 7 7 0 -5 -9 -7
-7 -7 7 7 0 -5 -9 -7
-7 -7 8 7 1 -5 -8 -7
-7 -7 8 7 2 -5 -8 -7
-7 -7 8 7 2 -5 -8 -7
-6 -6 9 7 3 -6 -7 -6
-6 -6 9 7 3 -6 -7 -6
-6 -6 9 6 3 -5 -7 -6
-6 -6 9 6 3 -5 -7 -6
-6 -6 9 6 3 -5 -7 -6
-5 -6 9 5 4 -4 -7 -5
-5 -6 9 5 4 -4 -7 -5
-5 -6 9 6 5 -3 -6 -5
-5 -6 9 7 6 -3 -6 -5
-5 -6 9 7 6 -3 -6 -5
-5 -6 10 8 7 -2 -5 -4
-5 -6 10 9 8 0 -4 -4
-5 -5 10 10 9 1 -3 -3
-5 -4 10 11 9 1 -3 -3
-5 -4 10 12 10 2 -2 -3
-4 -3 11 13 11 3 0 -2
-4 -2 11 13 11 3 0 -2
-3 0 11 14 12 4 1 0
-2 0 11 15 12 4 2 0
-2 1 11 15 12 4 2 0
0 2 12 16 13 5 3 1
0 3 12 17 14 6 4 2
1 5 13 18 15 8 5 3
2 6 14 19 16 9 6 4
2 7 14 20 17 10 7 5
3 8 15 21 18 11 8 6
4 8 15 21 18 11 8 7
5 8 15 22 19 12 8 8
5 8 15 23 20 12 8 8
6 8 15 23 20 12 8 9
7 10 16 24 21 13 8 10
7 11 16 24 21 14 9 10
7 13 17 25 22 15 11 11
7 15 18 26 23 15 12 12
7 17 18 26 23 16 13 12
7 18 19 27 24 17 14 13
7 18 20 28 24 17 15 14
8 19 21 29 24 18 16 15
8 20 21 29 24 19 17 15
8 20 22 30 24 19 18 16
9 21 23 31 25 20 19 17
9 21 23 30 25 20 19 17
10 22 22 29 25 20 19 18
10 23 22 28 25 20 19 19
10 23 22 27 25 20 19 19
11 24 21 26 24 20 20 20
12 25 21 25 23 20 20 20
13 27 21 24 22 20 21 20
13 28 21 24 21 20 22 20
14 29 21 23 20 20 22 20
15 30 22 22 19 20 23 21
15 30 22 21 19 20 23 21
14 29 22 20 18 20 23 21
14 28 22 20 17 20 23 21
14 28 22 19 17 20 23 21
13 27 21 18 16 19 22 22
13 27 21 18 16 19 22 21
13 26 20 17 15 19 21 20
13 26 19 16 15 19 21 20
13 26 19 16 15 19 21 19
12 25 18 15 14 18 20 18
12 24 18 15 14 18 19 17
11 22 17 15 15 17 18 16
11 21 17 15 15 16 17 15
11 20 17 15 15 16 16 14
10 19 16 14 16 15 15 13
9 17 15 13 15 14 13 11
7 15 14 11 14 12 12 10
6 13 14 10 14 11 11 9
5 11 13 9 13 10 9 7
4 10 12 8 12 9 8 6
4 9 12 8 11 8 7 6
4 7 11 7 10 7 6 5
4 6 10 6 9 7 5 4
4 5 10 6 8 6 4 4
3 4 9 5 7 5 3 3
2 4 9 5 7 4 3 2
1 3 8 4 6 3 2 1
1 2 7 3 5 3 1 1
0 2 7 3 5 2 1 0
-2 1 6 2 4 1 0 -2
-2 1 6 2 4 1 0 -2
0 1 6 2 3 1 -2 -2
0 1 6 2 3 1 -2 -2
0 1 6 2 3 1 -2 -2
1 1 5 2 2 0 -3 -3
1 1 5 2 2 0 -3 -3
1 1 5 2 2 0 -3 -3
1 1 5 2 2 0 -3 -3
1 1 5 2 2 0 -3 -3
0 0 5 1 2 0 -3 -4
0 0 5 1 2 0 -3 -4
-2 0 5 2 3 0 -3 -4
-2 0 5 2 3 0 -3 -4
-2 0 5 2 3 0 -3 -4
-3 -2 6 3 4 0 -4 -5
-3 -2 6 3 4 0 -4 -5
-3 -2 6 3 4 0 -4 -5
-3 -2 6 3 4 0 -4 -5
-3 -2 6 3 4 0 -4 -5
-3 -3 5 4 3 0 -4 -5
-3 -3 5 4 3 0 -4 -5
-3 -3 5 4 4 0 -4 -5
-3 -3 5 4 4 0 -4 -5
-3 -3 5 4 4 0 -4 -5
-3 -2 5 5 5 1 -4 -5
-3 -2 5 5 5 1 -4 -5
-3 -2 6 5 5 2 -4 -5
-3 -2 6 5 5 2 -4 -5
-3 -2 6 5 5 2 -4 -5
-3 -3 7 6 5 3 -4 -5
-3 -3 7 5 5 3 -4 -5
-3 -3 7 4 5 2 -4 -5
-3 -3 7 4 5 2 -4 -5
-3 -3 7 3 5 2 -4 -5
-3 -2 6 2 4 1 -5 -4
-4 -2 6 2 4 1 -5 -4
-4 -3 6 2 4 1 -5 -4
-5 -4 6 3 4 1 -5 -4
-6 -4 6 3 4 1 -5 -4
-7 -5 6 4 3 1 -4 -5
-6 -5 6 4 3 1 -4 -5
-6 -5 6 4 3 1 -4 -5
-5 -5 6 4 3 1 -5 -5
-4 -5 6 4 3 1 -5 -5
-3 -5 5 4 3 0 -6 -5
-3 -5 5 4 3 0 -6 -5
-3 -5 5 3 3 0 -6 -5
-3 -5 5 2 3 0 -6 -5
-3 -5 5 2 3 0 -6 -5
-3 -4 4 1 2 0 -6 -4
-3 -4 4 1 2 0 -6 -4
-3 -4 4 1 2 -2 -6 -4
-3 -4 3 1 2 -3 -6 -4
-3 -4 3 1 2 -3 -6 -4
-4 -5 2 1 2 -4 -6 -4
-4 -5 2 1 2 -4 -6 -4
-4 -5 2 1 2 -4 -6 -5
-4 -5 2 0 1 -4 -7 -6
-4 -5 2 0 1 -4 -7 -6
-4 -4 3 -2 0 -4 -8 -7
-4 -4 3 -2 0 -4 -8 -7
-4 -4 3 -2 0 -4 -8 -7
-4 -5 3 -2 0 -4 -8 -7
-4 -5 3 -2 0 -4 -8 -7
-5 -6 2 -3 -2 -3 -7 -6
-5 -6 2 -3 -2 -3 -7 -6
-5 -6 2 -3 -2 -3 -7 -6
-4 -5 2 -3 -2 -4 -7 -6
-4 -5 2 -3 -2 -4 -7 -6
-3 -4 2 -4 -3 -5 -7 -6
-3 -4 2 -4 -3 -5 -7 -6
-3 -4 2 -4 -3 -5 -7 -6
-3 -5 2 -4 -3 -5 -7 -6
-3 -5 2 -4 -3 -5 -7 -6
-4 -6 2 -4 -3 -5 -7 -5
-4 -5 3 -4 -3 -5 -7 -5
-4 -5 3 -4 -3 -4 -7 -5
-3 -4 4 -3 -2 -3 -7 -4
-3 -3 5 -3 -2 -3 -7 -4
-2 -2 6 -2 0 -2 -6 -3
0 -2 6 1 1 -2 -6 -3
1 -2 6 2 2 0 -6 -3
2 -2 7 3 3 1 -5 -3
3 -2 7 5 4 1 -5 -3
4 0 8 6 5 2 -4 -2
4 1 8 6 5 2 -4 -2
4 1 8 6 5 2 -4 -2
4 2 9 6 5 2 -4 -2
4 3 9 6 5 2 -4 -2
4 4 10 7 6 3 -3 -2
5 4 8 7 6 3 -3 -2
6 4 6 7 6 3 -3 0
7 4 4 6 6 3 -3 1
8 4 2 6 6 3 -3 1
9 4 0 5 6 3 -3 2
9 3 -2 3 6 3 -3 2
9 3 -3 2 6 3 -2 2
10 2 -5 0 5 2 0 2
10 1 -6 -3 5 2 0 2
11 0 -7 -4 4 1 1 1
11 0 -7 -5 2 0 1 1
10 0 -7 -5 1 -2 1 1
9 -2 -7 -6 -2 -3 0 1
9 -2 -7 -7 -4 -4 0 1
8 -3 -8 -8 -5 -5 -2 0
8 -3 -8 -8 -5 -5 -2 0
8 -3 -8 -8 -5 -5 -2 0
8 -4 -8 -8 -5 -5 -3 0
8 -4 -8 -8 -5 -5 -3 0
9 -5 -7 -8 -4 -5 -4 0
7 -5 -7 -8 -4 -5 -4 0
6 -5 -7 -8 -4 -5 -4 -2
5 -6 -7 -8 -5 -5 -4 -3
3 -6 -7 -8 -5 -5 -4 -3
2 -7 -6 -9 -6 -6 -4 -4
0 -7 -5 -9 -6 -6 -6 -5
-2 -7 -4 -9 -6 -6 -7 -6
-4 -7 -3 -9 -6 -6 -8 -7
-6 -7 -2 -9 -6 -6 -10 -8
-7 -7 0 -8 -7 -7 -11 -9
-7 -7 0 -8 -7 -7 -11 -9
-7 -7 0 -8 -7 -7 -11 -9
-7 -7 0 -8 -7 -8 -11 -9
-7 -7 0 -8 -7 -8 -11 -9
-6 -8 -2 -9 -8 -9 -12 -10
-7 -8 -2 -9 -8 -9 -13 -11
-7 -8 -2 -9 -9 -10 -13 -12
-8 -9 -3 -10 -10 -11 -14 -13
-9 -9 -3 -10 -10 -11 -15 -14
-10 -10 -4 -11 -11 -12 -16 -15
-10 -10 -4 -11 -11 -11 -15 -14
-10 -10 -3 -11 -10 -11 -15 -13
-10 -10 -2 -10 -9 -10 -14 -12
-10 -10 -2 -10 -9 -9 -13 -11
-9 -9 0 -9 -8 -8 -12 -10
-9 -9 1 -8 -7 -8 -12 -10
-9 -9 1 -8 -6 -8 -12 -10
-9 -9 2 -7 -5 -8 -12 -10
-9 -9 3 -6 -4 -8 -12 -10
-8 -10 5 2 5 -4 -10 -9
-6 -8 9 16 22 11 0 -5
-4 -6 14 31 40 25 8 -2
-2 -4 18 46 59 39 17 3
0 -2 22 61 76 53 25 6
7 6 29 86 107 77 43 15
21 21 40 122 155 117 72 32
35 35 52 160 204 157 102 49
50 50 64 197 253 197 132 66
64 64 75 235 301 236 160 84
73 73 74 237 310 247 176 94
75 72 52 187 258 212 165 93
76 72 30 136 206 177 156 91
78 71 8 85 154 141 147 90
80 70 -15 33 103 106 137 88
75 63 -41 -25 43 63 114 78
57 45 -76 -94 -31 10 70 58
39 27 -111 -162 -105 -45 27 37
21 10 -146 -232 -179 -98 -16 17
4 -8 -181 -301 -253 -152 -59 -4
-8 -19 -196 -329 -287 -180 -83 -17
-9 -20 -178 -296 -260 -166 -78 -16
-10 -21 -160 -262 -232 -153 -72 -14
-11 -22 -142 -228 -204 -140 -66 -13
-12 -23 -124 -194 -177 -126 -61 -11
-13 -23 -107 -163 -151 -111 -55 -10
-11 -20 -90 -136 -128 -96 -48 -9
-10 -16 -73 -109 -104 -79 -40 -9
-8 -13 -56 -81 -80 -64 -33 -8
-6 -10 -39 -55 -57 -48 -26 -7
-5 -7 -26 -35 -40 -36 -21 -6
-6 -7 -21 -29 -34 -31 -20 -6
-6 -7 -16 -22 -28 -27 -18 -7
-7 -8 -10 -16 -22 -23 -17 -8
-8 -8 -5 -9 -16 -18 -15 -8
-9 -9 0 -5 -12 -15 -14 -9
-9 -9 0 -5 -12 -15 -14 -9
-9 -9 0 -5 -11 -15 -14 -9
-9 -10 0 -4 -10 -15 -14 -10
-9 -10 0 -4 -10 -15 -14 -10
-8 -11 0 -3 -9 -14 -15 -11
-8 -11 0 -3 -8 -13 -15 -11
-8 -11 0 -2 -7 -12 -14 -11
-8 -11 0 0 -6 -11 -13 -11
-8 -11 0 0 -5 -10 -13 -11
-8 -10 1 1 -4 -9 -12 -10
-8 -10 1 1 -4 -9 -12 -9
-8 -10 1 1 -4 -9 -11 -8
-8 -10 1 1 -4 -9 -10 -7
-8 -10 1 1 -4 -9 -10 -6
-9 -11 2 1 -3 -9 -9 -5
-9 -11 2 1 -3 -9 -9 -5
-8 -11 2 1 -3 -9 -9 -5
-7 -11 3 1 -3 -9 -9 -6
-7 -11 3 1 -3 -9 -9 -6
-6 -10 4 2 -3 -8 -10 -7
-6 -10 4 2 -3 -8 -10 -7
-6 -10 4 2 -2 -8 -10 -7
-6 -10 4 3 0 -8 -10 -6
-6 -10 4 3 0 -8 -10 -6
-7 -9 4 4 1 -7 -11 -5
-7 -9 4 4 1 -7 -11 -5
-7 -9 4 4 1 -7 -11 -6
-7 -9 5 4 1 -7 -11 -7
-7 -9 5 4 1 -7 -11 -7
-7 -8 6 3 0 -7 -10 -8
-7 -8 6 3 0 -7 -10 -8
-7 -8 6 3 0 -7 -10 -8
-7 -8 5 3 0 -6 -10 -8
-7 -8 5 3 0 -6 -10 -8
-8 -9 4 4 1 -5 -10 -9
-8 -9 5 4 1 -5 -9 -8
-7 -9 5 5 1 -5 -9 -7
-6 -8 6 6 2 -4 -8 -6
-6 -8 7 6 2 -4 -7 -5
-5 -7 8 7 3 -3 -6 -4
-5 -7 8 7 3 -3 -6 -4
-5 -7 8 8 3 -3 -6 -4
-5 -7 8 9 4 -3 -6 -4
-5 -7 8 9 4 -3 -6 -4
-5 -8 8 10 5 -3 -5 -5
-5 -8 8 10 5 -3 -5 -5
-5 -8 8 10 6 -3 -5 -5
-5 -8 9 11 7 -2 -5 -6
-5 -8 9 11 7 -2 -5 -6
-5 -7 10 12 8 0 -5 -7
-5 -7 10 12 8 0 -4 -6
-5 -6 9 12 8 1 -4 -5
-4 -5 8 12 8 2 -3 -3
-4 -5 8 12 8 2 -2 -2
-3 -4 7 13 9 3 0 0
-3 -4 8 14 10 3 0 0
-3 -4 8 14 11 3 1 0
-2 -4 9 15 12 4 2 0
-2 -4 10 16 13 4 2 0
0 -4 11 17 14 5 3 1
1 -3 11 17 14 6 3 1
1 0 11 17 15 7 3 1
2 1 11 17 16 8 3 1
3 3 11 17 16 9 3 1
4 4 11 18 17 10 4 1
4 4 11 19 18 10 5 2
4 5 12 21 19 11 6 3
4 5 12 22 20 11 7 4
4 6 13 24 21 12 9 6
4 7 14 25 22 13 10 7
4 8 14 26 22 13 10 8
4 10 14 26 22 14 10 8
4 11 14 27 23 14 11 9
4 13 14 28 23 15 11 10
5 14 14 29 24 16 12 11
6 14 14 29 24 16 13 11
6 15 14 29 24 16 14 11
7 15 14 29 24 17 15 12
8 16 14 29 24 17 16 12
9 17 15 29 24 18 17 13
9 18 15 29 24 18 17 13
10 19 16 29 24 18 17 13
10 20 16 29 24 18 18 14
11 21 17 29 24 18 18 14
12 22 18 30 25 19 19 15
12 22 18 29 25 19 19 16
12 22 18 29 24 19 19 16
12 22 18 28 24 19 20 17
12 22 18 27 23 19 20 18
11 22 19 26 22 20 21 19
12 23 19 25 21 20 21 19
13 24 19 24 20 20 22 20
14 25 19 23 19 20 22 20
15 27 19 21 18 20 23 21
16 28 19 20 17 19 24 22
15 27 19 19 17 19 24 22
14 26 18 19 17 19 23 21
13 25 18 18 16 19 23 21
12 23 17 17 16 19 22 20
11 22 16 16 15 18 21 19
11 21 16 16 15 18 20 18
11 21 16 16 15 18 20 16
11 20 15 15 15 17 19 15
11 19 15 15 15 17 18 13
10 18 14 14 16 16 17 12
9 17 14 14 16 16 16 11
8 15 14 14 15 16 14 9
7 14 13 14 15 15 13 8
5 12 13 14 14 15 11 6
4 11 12 13 13 14 10 5
4 10 11 12 12 13 9 4
3 8 11 11 11 11 8 3
3 7 10 10 10 10 7 2
2 5 9 9 8 8 6 0
1 4 8 8 7 7 5 -2
1 4 8 7 7 7 5 -2
1 4 8 7 7 6 5 -3
1 3 7 6 6 6 4 -3
1 3 7 5 6 5 4 -4
1 2 6 4 5 4 3 -5
1 1 6 4 5 4 3 -5
0 1 6 4 4 3 2 -6
0 0 6 3 4 3 2 -6
-2 -2 6 3 3 2 1 -7
-3 -3 5 2 2 1 0 -8
-3 -3 5 2 2 1 0 -8
-3 -3 5 2 2 1 0 -8
-3 -3 5 2 2 0 0 -8
-3 -3 5 2 2 0 0 -8
-3 -4 4 2 2 -2 -2 -9
-3 -4 4 2 2 -2 -2 -9
-3 -4 4 2 2 -2 -2 -9
-3 -4 4 2 1 -2 -2 -10
-3 -4 4 2 1 -2 -2 -10
-2 -5 3 2 0 -2 -3 -11
-2 -5 3 2 0 -2 -3 -11
-2 -5 4 2 0 -2 -3 -11
-3 -5 4 3 1 -2 -3 -10
-3 -5 5 3 1 -2 -3 -10
-4 -6 6 4 2 0 -4 -9
-4 -6 6 4 2 0 -4 -9
-4 -6 6 4 2 0 -4 -9
-4 -6 5 4 2 0 -4 -9
-4 -6 5 4 2 0 -4 -9
-5 -6 4 5 2 -2 -5 -10
-5 -6 4 5 2 -2 -5 -9
-5 -6 4 5 2 -2 -5 -9
-5 -6 5 5 3 0 -5 -8
-5 -6 5 5 3 0 -5 -7
-5 -6 6 4 4 1 -4 -6
-5 -6 6 4 4 1 -4 -6
-5 -6 6 4 4 1 -4 -6
-4 -6 6 5 4 1 -4 -6
-4 -6 6 5 4 1 -4 -6
-3 -5 6 6 3 1 -5 -5
-3 -5 6 6 3 1 -5 -5
-3 -5 6 6 3 1 -5 -5
-4 -6 5 5 3 1 -5 -5
-4 -6 5 5 3 1 -5 -5
-5 -7 4 4 2 0 -5 -5
-5 -7 4 4 2 0 -5 -5
-5 -7 4 4 2 0 -5 -5
-5 -7 4 4 2 0 -5 -5
-5 -7 4 4 2 0 -5 -5
-4 -7 4 3 2 0 -5 -5
-4 -7 4 3 2 0 -5 -5
-4 -7 4 3 2 0 -5 -4
-4 -6 5 3 2 0 -4 -4
-4 -6 5 3 2 0 -4 -3
-4 -5 6 3 1 0 -3 -2
-4 -5 6 3 1 0 -3 -2
-4 -5 5 3 1 -2 -3 -3
-4 -6 5 2 0 -2 -4 -3
-4 -6 4 2 0 -3 -4 -4
-5 -7 3 1 -2 -4 -5 -5
-5 -7 3 1 -2 -4 -5 -5
-5 -7 3 1 -2 -4 -5 -5
-5 -7 3 1 -2 -4 -5 -5
-5 -7 3 1 -2 -4 -5 -5
-4 -7 3 2 -2 -4 -5 -4
-4 -7 3 2 -2 -4 -5 -4
-4 -7 3 2 -2 -4 -5 -4
-4 -7 3 2 -2 -4 -5 -4
-4 -7 3 2 -2 -4 -5 -4
-4 -7 3 1 -2 -4 -5 -5
-4 -7 3 1 -2 -4 -5 -5
-4 -7 3 1 -2 -4 -5 -5
-4 -7 3 1 -3 -4 -5 -5
-4 -7 3 1 -3 -4 -5 -5
-5 -6 4 0 -4 -3 -6 -5
-5 -6 4 0 -4 -3 -6 -5
-5 -6 4 0 -4 -4 -6 -5
-5 -6 4 -2 -4 -5 -6 -5
-5 -6 4 -2 -4 -6 -6 -5
-5 -7 3 -3 -5 -7 -7 -5
-5 -7 3 -3 -5 -7 -7 -5
-5 -7 3 -3 -5 -7 -7 -5
-5 -7 3 -3 -5 -6 -7 -5
-5 -7 3 -3 -5 -6 -7 -5
-5 -8 3 -2 -5 -5 -7 -6
-4 -7 4 -2 -5 -5 -7 -6
-3 -6 5 0 -4 -4 -6 -6
-2 -5 6 0 -3 -4 -6 -5
0 -4 7 1 -2 -3 -5 -5
1 -3 8 2 0 -2 -4 -4
1 -3 8 3 1 -2 -4 -4
1 -3 8 4 2 0 -3 -3
2 -2 9 5 3 1 -2 -3
2 -2 9 7 4 2 0 -2
3 0 10 8 5 3 1 0
3 0 10 8 5 3 1 0
3 0 10 8 5 3 1 0
4 0 11 8 5 4 2 1
4 0 11 8 5 4 2 1
5 1 12 8 4 5 3 2
5 1 9 7 4 5 3 2
6 1 6 5 4 5 3 2
6 0 4 3 4 4 3 2
7 0 1 2 4 4 3 2
8 -2 -3 0 3 3 4 3
8 -2 -3 0 3 3 4 3
8 -2 -4 0 2 2 4 3
9 -2 -4 -2 1 2 4 3
9 -2 -5 -2 0 1 4 3
10 0 -6 -3 -2 0 3 2
10 0 -6 -3 -2 0 3 2
9 0 -6 -4 -3 0 2 2
9 -2 -6 -4 -3 -2 2 2
8 -2 -6 -5 -4 -2 1 2
7 -3 -6 -6 -5 -3 0 1
7 -4 -6 -6 -5 -3 0 1
6 -5 -6 -6 -6 -4 -2 0
6 -6 -6 -7 -6 -4 -2 -2
5 -7 -6 -7 -7 -5 -3 -3
4 -8 -5 -8 -8 -6 -4 -4
3 -8 -4 -8 -8 -6 -4 -4
1 -8 -3 -8 -8 -6 -4 -4
0 -8 -2 -7 -8 -6 -5 -4
-2 -8 0 -7 -8 -6 -5 -4
-4 -7 1 -6 -8 -6 -6 -5
-4 -7 1 -6 -9 -6 -6 -6
-5 -8 1 -6 -10 -7 -7 -8
-6 -8 1 -6 -11 -8 -8 -9
-7 -9 1 -6 -12 -9 -9 -10
-8 -10 0 -7 -13 -10 -10 -12
-8 -10 0 -7 -13 -10 -10 -12
-8 -10 0 -8 -13 -10 -10 -12
-9 -10 0 -8 -13 -10 -10 -12
-9 -10 0 -9 -13 -10 -10 -12
-10 -11 0 -10 -13 -11 -11 -13
-10 -11 0 -10 -13 -11 -11 -13
-10 -10 0 -9 -12 -11 -11 -13
-10 -10 0 -9 -11 -10 -10 -12
-10 -9 0 -8 -10 -10 -10 -12
-9 -8 1 -7 -9 -9 -9 -11
-9 -8 1 -7 -9 -9 -9 -11
-9 -9 1 -7 -9 -9 -9 -11
-9 -10 1 -7 -9 -9 -9 -11
-9 -11 1 -7 -9 -9 -9 -11
-10 -12 2 -8 -9 -8 -9 -11
-10 -12 5 -2 -4 -6 -9 -11
-10 -12 8 4 2 -3 -8 -11
-11 -12 12 10 7 0 -8 -11
-11 -12 15 15 12 3 -7 -11
-11 -12 19 24 22 10 -3 -11
-3 -3 25 53 59 40 19 2
7 7 32 80 96 71 40 13
15 15 38 109 133 102 62 25
24 24 46 138 170 133 84 36
33 34 52 162 204 161 105 49
47 47 54 173 224 182 130 64
60 59 56 184 243 201 153 79
73 71 58 194 263 222 177 96
87 84 61 204 282 242 200 111
96 92 58 200 283 248 214 121
81 75 22 116 190 178 165 100
66 60 -14 32 96 106 117 77
52 44 -50 -53 3 35 69 56
37 28 -85 -137 -92 -35 21 33
23 13 -117 -210 -173 -98 -21 14
15 6 -130 -227 -191 -112 -33 8
7 -2 -142 -243 -208 -127 -45 2
-2 -10 -155 -261 -226 -141 -57 -5
-10 -17 -168 -278 -244 -156 -68 -11
-17 -24 -176 -286 -255 -166 -77 -17
-15 -22 -151 -245 -221 -147 -69 -16
-13 -20 -128 -205 -187 -128 -60 -15
-11 -18 -104 -164 -153 -108 -52 -14
-9 -15 -79 -123 -119 -89 -44 -13
-7 -13 -58 -87 -89 -71 -35 -12
-7 -12 -48 -72 -76 -61 -31 -11
-7 -11 -37 -58 -63 -52 -27 -10
-6 -10 -28 -43 -50 -41 -24 -9
-6 -9 -18 -28 -36 -32 -20 -8
-5 -8 -9 -15 -24 -23 -16 -7
-5 -8 -7 -13 -22 -22 -16 -7
-6 -9 -5 -11 -20 -20 -15 -8
-7 -9 -3 -9 -18 -18 -15 -9
-8 -10 0 -7 -15 -17 -14 -10
-9 -11 2 -5 -13 -15 -13 -11
-9 -11 2 -5 -13 -15 -13 -11
-8 -10 2 -4 -12 -14 -13 -11
-8 -10 2 -4 -11 -13 -13 -11
-7 -9 2 -3 -10 -12 -13 -11
-6 -8 3 -2 -9 -11 -13 -11
-6 -8 3 -2 -9 -11 -13 -11
-7 -8 3 -2 -9 -11 -13 -11
-8 -9 4 -2 -8 -11 -12 -11
-9 -9 4 -2 -8 -11 -12 -11
-10 -10 5 0 -7 -10 -11 -11
-10 -10 5 0 -7 -10 -11 -11
-10 -10 5 0 -7 -10 -11 -11
-9 -9 5 0 -6 -10 -11 -11
-9 -9 5 0 -6 -10 -11 -11
-8 -8 5 0 -5 -9 -11 -10
-8 -8 5 0 -5 -9 -11 -10
-8 -8 5 0 -5 -9 -11 -10
-8 -8 6 0 -5 -9 -11 -10
-8 -8 6 0 -5 -9 -11 -10
-8 -8 7 0 -4 -9 -10 -9
-8 -8 7 0 -4 -9 -10 -9
-8 -8 7 0 -4 -9 -10 -9
-8 -8 7 0 -4 -9 -10 -9
-8 -8 7 0 -4 -9 -10 -9
-9 -9 6 1 -4 -8 -10 -9
-9 -9 6 1 -4 -8 -10 -9
-9 -9 6 1 -4 -8 -10 -9
-8 -8 7 1 -4 -8 -9 -9
-8 -8 7 1 -4 -8 -9 -9
-7 -7 8 2 -3 -7 -8 -8
-7 -7 8 2 -3 -7 -8 -8
-7 -7 8 3 -2 -6 -8 -8
-6 -7 9 4 0 -6 -8 -7
-6 -7 9 5 1 -5 -8 -7
-5 -6 10 6 2 -4 -8 -6
-5 -6 10 6 2 -4 -8 -6
-5 -6 10 6 2 -4 -8 -6
-5 -6 10 7 2 -4 -8 -6
-5 -6 10 7 2 -4 -8 -6
-4 -5 10 8 2 -5 -7 -6
-4 -5 10 8 2 -5 -7 -6
-4 -6 10 8 2 -5 -7 -6
-4 -6 10 8 2 -4 -7 -5
-4 -7 10 8 2 -4 -7 -5
-3 -8 9 9 3 -3 -6 -4
-3 -8 9 9 3 -3 -6 -4
-3 -7 9 9 3 -3 -5 -4
-3 -6 9 10 4 -3 -5 -3
-3 -5 9 10 4 -3 -4 -3
-3 -4 9 11 5 -2 -3 -2
-3 -4 9 11 5 -2 -3 -2
-3 -4 9 11 6 0 -3 -2
-3 -4 9 11 7 0 -3 0
-3 -4 9 11 8 1 -3 0
-3 -3 9 12 9 2 -2 1
-3 -2 9 13 9 3 0 1
-2 0 9 14 10 4 1 1
0 1 9 15 11 5 2 1
1 2 9 16 12 6 3 1
2 3 10 17 13 7 4 2
2 3 10 17 14 7 4 3
2 3 10 18 15 7 5 4
2 3 10 18 16 8 5 5
2 3 10 19 17 8 6 6
2 4 11 20 18 9 7 7
3 5 11 20 18 10 8 8
4 6 11 21 19 11 9 9
5 7 12 22 19 12 10 10
6 8 12 23 20 13 11 11
8 10 13 24 21 14 13 12
8 11 13 24 21 15 14 13
8 12 13 25 22 16 15 14
8 14 13 26 22 17 16 15
8 15 13 27 23 18 17 16
9 17 13 28 24 19 18 18
9 17 13 28 24 19 18 18
10 18 13 28 24 19 18 18
10 19 14 28 24 19 19 19
11 20 14 28 24 19 19 19
12 21 15 27 24 20 20 20
12 21 15 27 24 20 21 20
12 22 15 27 24 20 22 21
13 22 15 27 24 21 23 21
13 23 15 27 24 21 24 22
14 24 16 28 24 22 25 23
14 24 16 28 24 22 25 23
15 25 16 27 23 22 25 24
16 25 16 26 22 22 26 24
17 26 16 25 21 22 26 25
18 27 15 24 20 23 27 26
18 27 15 24 20 23 27 26
18 28 15 23 20 23 27 26
18 28 14 22 20 23 27 26
18 29 14 21 20 23 27 26
17 30 13 20 19 23 27 27
17 30 13 20 19 23 27 27
17 29 13 20 19 23 27 26
16 28 14 20 19 23 26 25
16 27 14 20 19 23 26 24
15 26 15 20 20 22 25 23
15 26 15 20 20 22 24 22
15 25 15 20 20 22 23 21
15 25 15 19 20 21 21 20
15 24 15 19 20 21 20 19
14 23 15 18 19 20 18 18
13 21 15 17 18 18 17 17
11 19 15 16 17 16 15 15
9 16 14 15 16 14 14 13
7 14 14 14 15 12 12 11
5 11 13 13 13 10 10 9
5 10 13 13 12 9 9 8
4 9 12 12 11 8 8 7
3 7 11 11 10 7 7 6
2 6 10 10 9 6 6 5
1 4 9 9 7 5 4 4
1 4 9 8 7 5 4 4
1 4 9 7 6 4 3 3
0 4 9 6 5 3 3 2
0 4 9 5 4 2 2 1
-2 3 9 4 3 1 1 0
-2 3 9 4 3 1 1 0
-2 2 9 4 3 1 1 0
-2 2 9 4 3 1 0 -2
-2 1 9 4 3 1 0 -2
-3 0 8 4 2 1 -2 -3
-3 0 8 4 2 1 -2 -3
-3 0 8 4 2 1 -2 -3
-3 -2 8 3 2 0 -2 -3
-3 -2 8 3 2 0 -2 -3
-4 -3 8 2 1 -2 0 -3
-4 -3 8 2 1 -2 0 -3
-4 -3 8 2 1 -2 0 -3
-4 -3 8 3 1 -2 0 -3
-4 -3 8 3 1 -2 0 -3
-4 -3 7 4 2 0 -2 -3
-4 -3 7 4 2 0 -2 -3
-3 -3 7 4 2 0 -2 -3
-2 -2 7 4 2 0 -2 -3
0 -2 7 4 2 0 -2 -3
1 0 7 5 3 0 -2 -3
0 0 7 5 3 0 -2 -3
-2 -2 7 5 3 0 -2 -3
-3 -3 7 5 4 0 -2 -3
-4 -4 7 5 4 0 -2 -3
-5 -5 6 5 5 0 -2 -3
-5 -5 6 5 5 0 -2 -3
-5 -4 6 5 5 0 -2 -3
-5 -4 6 5 5 0 -2 -3
-5 -3 6 5 5 0 -2 -3
-4 -2 6 6 4 1 0 -3
-4 -2 6 6 4 1 0 -3
-4 -2 6 6 4 1 0 -3
-3 -2 6 6 4 1 0 -3
-3 -2 6 6 4 1 0 -3
-2 0 6 5 3 1 -2 -3
-2 0 6 5 3 1 -2 -3
-2 0 6 5 3 1 -2 -3
-2 0 6 5 3 1 -2 -3
-2 0 6 5 3 1 -2 -3
-3 -2 5 4 3 0 -3 -4
-3 -2 5 4 3 0 -3 -4
-3 -2 5 4 3 0 -3 -4
-3 -2 5 4 3 0 -3 -4
-3 -2 5 4 3 0 -3 -4
-4 -3 6 4 4 0 -2 -3
-4 -3 6 4 4 0 -2 -3
-4 -3 6 4 4 0 -2 -3
-4 -3 5 4 3 0 -2 -3
-4 -3 5 4 3 0 -2 -3
-4 -4 4 4 2 0 -3 -4
-4 -4 4 4 2 0 -3 -4
-4 -4 4 4 2 0 -3 -4
-3 -4 4 4 2 0 -3 -4
-3 -4 4 4 2 0 -3 -4
-2 -3 4 3 1 -2 -4 -4
-2 -3 4 3 1 -2 -4 -4
-2 -3 4 2 1 -2 -4 -4
-3 -4 4 2 0 -2 -4 -4
-3 -4 4 1 0 -2 -4 -4
-4 -5 3 0 -2 -3 -4 -4
-4 -5 3 0 -2 -3 -4 -4
-4 -5 3 0 -2 -3 -4 -4
-4 -4 3 0 -2 -4 -4 -4
-4 -4 3 0 -2 -4 -4 -4
-4 -4 3 0 -2 -4 -4 -4
-4 -3 3 0 -2 -5 -5 -5
-4 -3 3 0 -2 -5 -5 -5
-4 -3 3 0 -2 -5 -5 -5
-4 -3 3 0 -2 -5 -5 -5
-4 -3 3 0 -2 -5 -5 -5
-5 -4 4 0 -2 -5 -4 -6
-5 -4 4 0 -2 -5 -4 -6
-5 -4 4 -2 -3 -5 -5 -6
-5 -4 4 -2 -3 -5 -5 -6
-5 -4 4 -2 -3 -5 -5 -6
-6 -4 3 -3 -4 -6 -6 -5
-5 -4 3 -3 -4 -6 -6 -5
-5 -4 3 -2 -3 -6 -6 -5
-4 -4 3 -2 -3 -6 -6 -5
-4 -4 3 -2 -3 -6 -6 -5
-3 -4 4 0 -2 -5 -5 -5
-3 -3 5 1 0 -4 -5 -4
-2 -2 6 2 1 -3 -4 -4
-2 0 7 3 2 -2 -4 -3
-2 0 8 4 3 -2 -4 -3
0 1 9 5 4 0 -3 -2
0 2 9 6 4 1 -2 -2
1 3 10 6 5 1 -2 0
1 4 10 7 5 2 0 0
1 4 10 7 5 2 0 0
2 5 11 8 6 3 1 1
3 5 10 8 6 3 1 1
3 4 10 7 6 3 2 1
4 4 9 7 6 3 2 1
4 4 9 7 6 3 2 1
5 3 6 5 6 3 3 2
6 2 4 4 5 2 3 2
7 2 1 3 5 2 3 3
8 1 -2 2 4 1 3 3
9 1 -4 1 4 1 3 3
10 0 -5 0 3 0 2 4
10 0 -5 -2 2 -2 2 4
10 0 -5 -3 1 -3 1 4
10 0 -5 -4 0 -4 1 4
10 0 -5 -4 0 -5 1 4
9 0 -6 -5 -2 -6 0 3
9 0 -6 -5 -3 -6 0 3
8 -2 -6 -5 -3 -6 0 2
8 -2 -6 -5 -4 -6 0 2
8 -2 -6 -5 -4 -6 0 2
7 -3 -5 -6 -5 -6 -2 1
7 -4 -5 -6 -5 -6 -3 0
6 -4 -4 -6 -6 -7 -3 0
6 -5 -4 -6 -6 -7 -4 -2
6 -5 -4 -6 -6 -7 -4 -2
4 -6 -3 -7 -7 -8 -5 -3
2 -6 -3 -7 -7 -8 -5 -4
1 -6 -2 -7 -7 -8 -6 -5
-2 -6 -2 -7 -7 -8 -6 -6
-3 -6 -2 -7 -7 -8 -6 -6
-4 -6 0 -6 -6 -7 -8 -7
-5 -7 0 -7 -7 -8 -9 -8
-6 -7 0 -7 -8 -8 -10 -9
-7 -8 0 -8 -9 -9 -11 -10
-7 -8 0 -8 -10 -9 -12 -10
-8 -9 1 -9 -11 -10 -13 -11
-9 -9 1 -9 -11 -10 -13 -11
-9 -8 1 -9 -11 -10 -12 -11
-10 -8 1 -9 -11 -10 -12 -11
-10 -8 1 -9 -11 -10 -12 -11
-11 -7 1 -9 -10 -11 -11 -11
-11 -7 1 -9 -10 -11 -11 -11
-11 -7 1 -9 -9 -11 -11 -11
-11 -7 1 -9 -9 -11 -11 -11
-11 -7 1 -9 -9 -11 -11 -11
-10 -8 1 -8 -8 -11 -11 -10
-11 -8 1 -8 -8 -11 -11 -10
-11 -9 1 -8 -8 -11 -11 -10
-12 -9 1 -8 -8 -11 -11 -10
-12 -9 1 -8 -8 -11 -11 -10
-13 -10 4 2 2 -4 -9 -11
-12 -9 7 11 12 4 -5 -11
-11 -8 11 21 22 12 0 -12
-10 -7 15 30 33 19 3 -12
-9 -6 18 39 44 27 7 -12
3 6 29 75 89 64 33 3
14 18 40 113 137 102 61 20
25 29 52 150 184 141 90 37
37 40 64 188 232 179 117 55
49 53 75 226 279 218 146 71
57 59 65 215 273 216 151 78
66 64 53 199 261 211 154 85
74 70 39 183 250 205 158 90
82 75 27 168 237 199 162 96
92 81 14 152 225 194 165 102
75 65 -22 65 133 127 121 81
56 45 -60 -27 32 54 73 57
35 25 -98 -119 -67 -19 24 33
16 5 -136 -212 -166 -92 -24 9
-4 -15 -175 -303 -266 -164 -73 -16
-8 -19 -174 -295 -262 -166 -77 -18
-10 -21 -170 -277 -247 -161 -76 -18
-12 -24 -164 -259 -233 -156 -75 -19
-14 -26 -159 -241 -219 -151 -74 -19
-16 -28 -155 -223 -205 -146 -73 -19
-15 -26 -134 -191 -178 -129 -65 -18
-13 -22 -111 -158 -150 -110 -56 -16
-11 -18 -89 -126 -121 -91 -47 -14
-8 -14 -66 -92 -93 -72 -38 -11
-6 -10 -44 -59 -65 -54 -29 -9
-6 -9 -35 -48 -55 -48 -27 -8
-8 -10 -28 -39 -48 -41 -25 -9
-9 -11 -21 -30 -39 -36 -23 -10
-11 -12 -14 -21 -31 -30 -21 -11
-12 -12 -7 -12 -23 -25 -20 -12
-13 -13 -6 -10 -21 -24 -19 -13
-13 -13 -5 -9 -20 -23 -19 -13
-13 -13 -5 -8 -19 -22 -19 -14
-13 -13 -4 -7 -18 -21 -19 -14
-13 -13 -4 -6 -17 -20 -19 -14
-14 -13 -3 -5 -16 -19 -19 -15
-14 -13 -3 -5 -15 -18 -19 -15
-14 -13 -2 -5 -15 -17 -18 -15
-14 -13 -2 -5 -14 -16 -18 -15
-14 -13 -2 -5 -14 -16 -18 -15
-13 -12 0 -5 -13 -15 -17 -15
-13 -12 0 -5 -13 -15 -17 -15
-13 -12 0 -5 -13 -15 -17 -15
-13 -12 0 -5 -13 -15 -17 -15
-13 -12 0 -5 -13 -15 -17 -15
-13 -13 0 -5 -12 -16 -17 -14
-13 -13 0 -5 -12 -15 -17 -14
-13 -13 0 -5 -11 -15 -17 -14
-13 -13 0 -5 -11 -14 -17 -14
-13 -13 0 -5 -11 -14 -17 -14
-12 -12 0 -4 -10 -13 -16 -13
-12 -11 0 -4 -10 -13 -16 -13
-11 -11 1 -4 -10 -13 -16 -13
-11 -10 1 -4 -10 -13 -16 -13
-11 -10 1 -4 -10 -13 -16 -13
-10 -9 2 -5 -9 -14 -16 -13
-10 -9 2 -5 -9 -14 -16 -13
-10 -10 2 -5 -9 -14 -16 -13
-10 -10 2 -5 -9 -14 -16 -13
-10 -10 2 -5 -9 -14 -16 -13
-10 -11 1 -4 -9 -14 -16 -14
-10 -11 1 -4 -9 -14 -16 -14
-10 -11 1 -3 -9 -14 -16 -14
-10 -11 1 -3 -9 -14 -16 -14
-10 -11 1 -3 -9 -14 -16 -14
-11 -12 2 -2 -9 -13 -15 -14
-11 -12 2 -2 -8 -13 -15 -13
-11 -12 3 -2 -8 -12 -15 -12
-11 -12 3 -2 -7 -12 -15 -11
-11 -12 3 -2 -7 -12 -15 -11
-11 -12 4 0 -6 -11 -14 -10
-10 -12 4 0 -6 -11 -14 -10
-10 -12 3 0 -6 -11 -14 -10
-9 -12 3 0 -6 -11 -14 -10
-9 -12 3 0 -6 -11 -14 -10
-8 -11 2 0 -7 -11 -14 -10
-8 -11 2 0 -7 -11 -14 -10
-8 -11 2 0 -7 -11 -13 -10
-8 -11 2 0 -7 -11 -13 -10
-8 -11 2 0 -7 -11 -13 -10
-9 -11 3 1 -6 -11 -12 -10
-9 -11 3 2 -5 -11 -12 -10
-9 -10 3 3 -5 -10 -12 -9
-9 -10 3 4 -4 -10 -12 -9
-9 -10 3 4 -4 -10 -12 -9
-8 -9 3 5 -3 -9 -11 -8
-7 -9 3 6 -2 -8 -10 -8
-6 -8 4 7 0 -7 -9 -7
-5 -8 4 8 1 -6 -8 -7
-5 -8 4 8 2 -5 -8 -7
-4 -7 5 9 3 -4 -7 -6
-4 -7 5 9 3 -4 -7 -6
-4 -7 5 9 3 -4 -7 -6
-4 -7 5 9 3 -4 -7 -6
-4 -7 5 9 3 -4 -7 -6
-4 -7 6 10 4 -4 -8 -4
-4 -6 6 11 5 -3 -7 -3
-4 -6 6 12 5 -3 -7 -2
-4 -5 6 13 6 -2 -6 0
-4 -5 6 14 6 -2 -6 1
-3 -4 7 15 7 0 -5 2
-3 -3 7 16 8 1 -4 3
-2 -2 8 16 9 2 -3 3
-2 0 8 17 10 3 -2 4
-2 0 8 17 10 3 -2 4
0 2 9 18 11 4 1 6
1 5 9 19 12 5 2 7
2 7 9 20 12 6 3 8
3 9 9 21 13 7 5 9
3 11 9 21 13 8 6 10
4 12 10 22 14 9 7 11
5 12 11 22 14 9 8 12
5 12 12 22 14 9 8 13
6 12 13 22 14 9 9 14
6 12 13 22 14 9 9 14
7 12 14 21 13 9 10 15
7 12 14 20 13 9 10 15
7 13 14 20 12 10 10 14
7 13 14 19 12 10 10 14
7 13 14 19 12 10 10 14
8 14 15 18 11 11 11 13
8 14 15 18 11 11 12 13
9 13 15 17 11 11 13 14
9 13 15 17 11 11 14 14
9 13 15 17 11 11 14 14
10 12 15 16 10 11 15 15
10 11 14 15 9 10 14 15
10 10 14 14 8 9 13 14
10 9 13 13 6 8 12 14
10 9 13 13 5 7 12 14
11 7 12 12 4 6 11 12
11 5 12 12 4 6 10 11
10 3 13 11 4 5 9 9
10 1 13 11 4 5 8 7
10 -2 13 11 4 5 7 6
9 -4 14 10 4 4 6 5
8 -5 13 9 4 3 4 3
7 -7 13 9 4 3 3 2
6 -9 12 8 4 2 2 1
5 -10 12 8 4 2 1 0
4 -11 11 6 2 0 -2 -2
2 -11 11 5 1 -2 -3 -4
1 -11 11 4 -2 -4 -4 -5
0 -11 11 2 -4 -6 -6 -6
-2 -11 11 1 -5 -7 -7 -7
-3 -11 11 0 -6 -8 -8 -8
-3 -10 9 -2 -6 -8 -8 -7
-2 -9 7 -3 -6 -8 -8 -7
-2 -8 5 -4 -6 -8 -8 -6
-2 -7 3 -5 -6 -8 -8 -6
0 -6 2 -6 -6 -7 -7 -5
-2 -6 2 -6 -6 -7 -7 -5
-3 -6 2 -6 -7 -7 -7 -5
-4 -6 2 -6 -7 -7 -7 -5
-4 -6 2 -6 -7 -7 -7 -5
-5 -6 1 -7 -8 -7 -8 -6
-6 -8 0 -8 -9 -8 -9 -7
-7 -9 0 -8 -9 -9 -9 -8
-8 -10 -2 -9 -10 -10 -10 -9
-9 -11 -2 -9 -10 -11 -10 -9
-10 -12 -3 -10 -11 -12 -11 -10
-9 -12 -3 -10 -11 -12 -11 -10
-9 -12 -3 -10 -11 -11 -11 -11
-8 -12 -3 -10 -11 -11 -11 -11
-8 -12 -3 -10 -11 -11 -11 -11
-7 -12 -4 -9 -12 -10 -11 -12
-7 -12 -4 -9 -11 -10 -11 -12
-7 -11 -4 -9 -10 -10 -11 -11
-7 -11 -4 -9 -9 -10 -11 -11
-7 -11 -4 -9 -9 -10 -11 -11
-8 -10 -3 -8 -8 -9 -10 -10
-8 -10 -2 -6 -8 -9 -10 -10
-8 -11 -2 -5 -8 -9 -11 -11
-8 -11 0 -4 -8 -9 -11 -11
-8 -11 0 -3 -8 -9 -11 -11
-8 -11 2 8 5 1 -6 -11
-7 -10 4 20 21 13 2 -8
-5 -9 6 33 37 24 10 -6
-3 -7 8 46 54 36 17 -3
-2 -6 10 58 70 49 25 0
11 7 19 88 107 78 49 14
26 22 29 121 150 114 75 31
42 37 40 155 193 149 103 49
57 53 52 189 236 184 131 66
72 68 62 223 279 219 158 84
76 72 40 174 235 194 155 87
76 70 8 100 165 152 143 85
76 69 -24 26 97 109 132 81
76 68 -56 -48 28 67 119 79
76 67 -89 -121 -41 25 107 77
64 54 -103 -164 -93 -15 76 63
48 38 -114 -198 -139 -53 40 46
30 22 -124 -233 -185 -91 5 28
14 7 -135 -267 -231 -130 -32 11
-3 -10 -145 -302 -277 -168 -68 -8
-7 -13 -135 -277 -259 -161 -70 -11
-7 -11 -116 -234 -222 -141 -61 -10
-7 -8 -98 -191 -185 -120 -53 -9
-7 -6 -79 -149 -148 -100 -44 -7
-7 -4 -62 -106 -111 -79 -34 -6
-8 -3 -52 -85 -92 -68 -31 -6
-8 -4 -44 -70 -78 -59 -28 -8
-7 -4 -36 -55 -64 -50 -26 -10
-7 -5 -29 -39 -51 -40 -23 -12
-7 -5 -21 -25 -37 -31 -21 -14
-6 -6 -18 -20 -32 -27 -20 -15
-7 -7 -16 -17 -30 -25 -20 -15
-8 -8 -13 -15 -27 -24 -20 -16
-9 -9 -11 -12 -25 -22 -20 -16
-9 -10 -9 -10 -23 -20 -20 -16
-10 -11 -8 -9 -22 -19 -19 -17
-10 -12 -8 -9 -22 -19 -19 -18
-10 -12 -8 -9 -21 -19 -19 -19
-10 -13 -8 -9 -21 -19 -19 -20
-10 -13 -8 -9 -21 -19 -19 -20
-9 -14 -8 -8 -20 -19 -19 -21
-9 -14 -8 -8 -19 -19 -19 -21
-10 -14 -8 -8 -19 -19 -18 -21
-10 -14 -8 -8 -18 -19 -18 -21
-10 -14 -8 -8 -18 -19 -18 -21
-11 -14 -7 -7 -17 -18 -17 -20
-11 -13 -7 -7 -16 -17 -17 -19
-11 -13 -6 -6 -15 -17 -17 -19
-11 -12 -6 -6 -14 -16 -17 -18
-11 -12 -6 -6 -14 -16 -17 -18
-11 -11 -5 -5 -13 -15 -17 -17
-11 -12 -5 -5 -13 -15 -17 -17
-11 -13 -4 -5 -13 -15 -17 -18
-11 -14 -4 -5 -13 -15 -17 -18
-11 -14 -4 -5 -13 -15 -17 -18
-12 -15 -3 -5 -14 -14 -16 -19
-12 -15 -3 -5 -13 -14 -15 -19
-11 -15 -3 -5 -12 -13 -14 -19
-11 -15 -3 -5 -12 -13 -14 -19
-11 -15 -3 -5 -11 -13 -13 -19
-10 -14 -3 -5 -10 -12 -12 -18
-10 -14 -3 -4 -10 -12 -12 -18
-10 -13 -2 -4 -10 -12 -13 -18
-10 -13 -2 -3 -10 -12 -13 -18
-10 -13 -2 -3 -10 -12 -13 -18
-9 -12 0 -2 -9 -11 -14 -18
-10 -12 0 -2 -9 -11 -14 -18
-10 -13 0 0 -9 -11 -14 -18
-11 -13 0 0 -9 -11 -14 -18
-11 -13 0 0 -9 -11 -14 -18
-12 -14 0 1 -8 -10 -13 -18
-12 -14 0 2 -7 -10 -13 -18
-12 -13 0 2 -7 -10 -12 -17
-12 -13 0 3 -6 -10 -12 -17
-12 -13 0 3 -6 -10 -12 -17
-11 -12 1 4 -5 -9 -11 -16
-9 -11 1 5 -4 -8 -11 -16
-8 -10 1 6 -3 -8 -11 -16
-7 -9 1 6 -2 -7 -11 -16
-6 -8 1 7 0 -7 -11 -16
-5 -7 1 8 1 -6 -10 -15
-5 -7 1 8 1 -6 -9 -15
-6 -8 1 9 1 -5 -9 -14
-6 -8 1 9 1 -5 -8 -14
-6 -8 1 9 1 -5 -8 -14
-7 -9 2 11 3 -4 -7 -13
-7 -8 3 12 4 -3 -7 -12
-6 -8 3 13 5 -3 -6 -12
-6 -7 4 15 7 -2 -6 -11
-6 -7 4 16 8 -2 -6 -11
-5 -6 5 17 9 0 -5 -10
-5 -5 6 19 10 1 -3 -9
-5 -4 6 20 10 2 -2 -9
-5 -3 7 21 11 3 0 -8
-5 -2 7 22 11 4 1 -8
-4 0 8 23 12 6 2 -7
-3 1 8 23 13 7 3 -6
-2 2 8 23 14 8 4 -6
0 2 8 23 15 10 5 -5
1 3 8 23 16 11 6 -5
2 4 8 23 17 12 7 -4
2 5 9 24 18 12 7 -3
2 6 9 24 18 11 7 -3
2 6 10 25 19 11 7 -2
2 7 10 25 19 11 7 -2
2 8 11 26 20 10 8 0
3 9 11 26 20 10 8 0
4 10 10 26 19 10 8 0
4 10 10 26 19 10 8 0
5 11 10 26 19 10 8 0
6 12 9 25 18 11 9 0
6 12 9 25 18 11 9 0
5 12 9 25 18 11 9 1
5 12 9 25 18 11 9 1
5 12 9 25 18 11 9 1
4 13 8 24 19 11 10 2
4 13 8 24 19 11 10 2
5 13 8 24 19 11 10 2
5 13 8 24 19 11 10 2
5 13 8 24 19 11 10 2
6 14 8 23 20 11 9 1
5 13 8 24 21 12 9 1
5 12 8 24 21 12 9 1
4 12 8 25 22 13 9 1
4 11 8 25 22 13 9 1
3 10 8 26 23 14 10 0
3 9 8 25 23 14 9 0
3 8 9 25 23 14 9 -2
3 7 9 24 23 14 8 -2
3 6 9 24 23 14 8 -2
3 5 10 22 21 13 7 -3
1 4 10 20 19 11 5 -3
0 4 9 19 17 10 4 -4
-3 3 9 17 14 9 3 -4
-4 3 9 15 12 8 2 -4
-5 1 8 14 11 7 1 -5
-5 0 7 12 9 6 0 -5
-5 -3 6 11 8 5 -2 -6
-5 -4 6 10 6 4 -3 -6
-5 -6 5 9 5 3 -4 -6
-6 -7 4 8 4 2 -5 -7
-7 -7 3 7 3 0 -5 -7
-7 -8 3 6 2 -2 -6 -8
-8 -8 2 5 2 -3 -6 -8
-8 -8 2 4 1 -4 -6 -8
-9 -9 1 3 0 -5 -7 -9
-9 -9 1 3 -2 -5 -7 -9
-9 -9 1 2 -2 -5 -7 -9
-9 -9 1 2 -3 -5 -7 -9
-9 -9 1 2 -3 -5 -7 -9
-8 -8 1 1 -4 -5 -8 -8
-8 -8 1 1 -4 -5 -8 -8
-8 -9 1 0 -4 -6 -9 -8
-8 -9 1 0 -4 -6 -9 -8
-8 -9 1 0 -4 -6 -9 -8
-7 -10 1 -2 -4 -7 -10 -8
-7 -10 1 -2 -4 -7 -10 -8
-8 -10 0 -2 -5 -7 -10 -8
-8 -10 0 -2 -5 -7 -10 -8
-8 -10 0 -2 -5 -7 -10 -8
-9 -11 -2 -3 -6 -8 -10 -8
-9 -11 -2 -3 -6 -8 -10 -8
-9 -11 -2 -4 -6 -8 -10 -8
-9 -11 -2 -4 -6 -8 -10 -8
-9 -11 -2 -4 -6 -8 -10 -8
-9 -10 -2 -5 -6 -8 -10 -7
-9 -10 -2 -5 -6 -8 -10 -7
-9 -10 -2 -5 -7 -8 -10 -7
-9 -10 -2 -5 -7 -8 -10 -7
-9 -10 -2 -5 -7 -8 -10 -7
-8 -10 -2 -5 -8 -8 -11 -8
-8 -10 -2 -5 -8 -8 -11 -8
-8 -11 -2 -5 -8 -8 -11 -8
-8 -11 -2 -5 -8 -8 -11 -8
-8 -11 -2 -5 -8 -8 -11 -8
-9 -12 -2 -6 -8 -9 -11 -7
-9 -12 -2 -6 -8 -9 -11 -7
-9 -12 -2 -6 -8 -9 -11 -7
-9 -12 -2 -6 -8 -9 -11 -7
-9 -12 -2 -6 -8 -9 -11 -7
-8 -11 -3 -7 -9 -10 -12 -6
-8 -11 -3 -7 -9 -10 -12 -6
-9 -10 -3 -7 -9 -10 -12 -6
-9 -10 -3 -7 -9 -10 -12 -6
-9 -10 -3 -7 -9 -10 -12 -6
-10 -9 -3 -8 -10 -11 -13 -7
-10 -9 -3 -8 -10 -11 -13 -7
-10 -9 -3 -8 -10 -11 -13 -7
-10 -9 -3 -8 -10 -11 -13 -7
-10 -9 -3 -8 -10 -11 -13 -7
-9 -10 -4 -8 -10 -12 -13 -6
-9 -10 -4 -8 -10 -12 -13 -6
-9 -10 -4 -8 -10 -11 -13 -6
-9 -10 -4 -8 -10 -11 -13 -6
-9 -10 -4 -8 -10 -11 -13 -6
-10 -10 -4 -8 -10 -10 -12 -5
-10 -10 -4 -8 -10 -10 -12 -5
-10 -10 -4 -9 -11 -11 -12 -5
-10 -10 -4 -9 -11 -11 -12 -5
-10 -10 -4 -9 -11 -11 -12 -5
-10 -11 -4 -10 -12 -12 -13 -6
-10 -11 -4 -10 -12 -12 -13 -6
-10 -11 -4 -10 -12 -12 -13 -6
-10 -11 -4 -10 -12 -12 -13 -6
-10 -11 -4 -10 -12 -12 -13 -6
-10 -11 -4 -9 -11 -11 -13 -6
-10 -11 -4 -9 -11 -11 -13 -6
-10 -11 -4 -9 -11 -11 -14 -6
-10 -11 -4 -9 -11 -11 -14 -6
-10 -11 -4 -9 -11 -11 -14 -6
-9 -10 -4 -10 -11 -12 -15 -6
-9 -10 -4 -10 -11 -12 -15 -6
-9 -10 -4 -10 -11 -12 -14 -6
-9 -10 -4 -10 -11 -12 -14 -6
-9 -10 -4 -10 -11 -12 -14 -6
-9 -10 -4 -10 -11 -12 -13 -6
-9 -10 -4 -10 -11 -12 -13 -6
-9 -10 -4 -10 -11 -12 -13 -6
-9 -10 -4 -10 -11 -12 -13 -6
-9 -10 -4 -10 -11 -12 -13 -6
-8 -10 -3 -10 -12 -12 -13 -6
-8 -10 -3 -10 -12 -12 -13 -6
-9 -10 -3 -10 -12 -12 -13 -6
-10 -10 -3 -10 -12 -12 -13 -6
-10 -10 -3 -10 -12 -12 -13 -6
-11 -11 -3 -10 -11 -11 -12 -6
-11 -11 -3 -10 -11 -11 -12 -6
-10 -11 -3 -10 -11 -11 -12 -6
-10 -11 -3 -10 -11 -11 -12 -6
-10 -11 -3 -10 -11 -11 -12 -6
-9 -10 -3 -10 -12 -12 -13 -6
-9 -10 -3 -10 -12 -12 -13 -6
-9 -10 -3 -10 -12 -12 -13 -6
-9 -10 -3 -10 -12 -12 -13 -6
-9 -10 -3 -10 -12 -12 -13 -6
-9 -11 -2 -9 -11 -11 -13 -6
-9 -11 -2 -9 -11 -11 -13 -6
-9 -11 -2 -10 -12 -12 -13 -6
-9 -11 -2 -10 -12 -12 -13 -6
-9 -11 -2 -10 -12 -12 -13 -6
-9 -11 -3 -11 -13 -13 -14 -7
-9 -11 -3 -11 -13 -13 -14 -7
-8 -10 -3 -11 -13 -12 -14 -7
-7 -10 -3 -11 -13 -11 -14 -7
-7 -10 -3 -11 -13 -11 -14 -7
-6 -9 -2 -10 -12 -10 -13 -7
-6 -10 -2 -10 -12 -11 -13 -7
-7 -11 -3 -11 -13 -12 -13 -7
-8 -11 -3 -11 -13 -13 -13 -7
-8 -12 -3 -11 -13 -14 -13 -7
-9 -13 -4 -12 -14 -15 -14 -8
-9 -13 -4 -12 -14 -14 -14 -8
-9 -12 -4 -12 -14 -13 -14 -8
-9 -11 -4 -12 -14 -13 -14 -8
-9 -11 -4 -12 -14 -12 -14 -8
-9 -10 -3 -11 -13 -11 -14 -8
-9 -10 -3 -11 -13 -11 -14 -8
-8 -10 -3 -11 -13 -12 -14 -8
-8 -10 -3 -11 -13 -12 -14 -8
-8 -10 -3 -11 -13 -12 -14 -8
-7 -9 -3 -11 -13 -13 -14 -8
-7 -9 -3 -11 -13 -13 -14 -8
-7 -9 -3 -11 -13 -13 -14 -8
-7 -9 -3 -11 -13 -13 -14 -8
-7 -9 -3 -11 -13 -13 -14 -8
-7 -9 -3 -12 -12 -13 -14 -8
-7 -9 -3 -12 -12 -13 -14 -8
-7 -9 -3 -11 -12 -13 -14 -8
-7 -9 -3 -11 -12 -13 -14 -8
-7 -9 -3 -11 -12 -13 -14 -8
-7 -8 -2 -10 -13 -12 -13 -9
-7 -8 -2 -10 -13 -12 -13 -9
-7 -9 -2 -10 -13 -12 -13 -9
-7 -9 -2 -10 -13 -12 -13 -9
-7 -9 -2 -10 -13 -12 -13 -9
-7 -10 -2 -10 -13 -12 -13 -9
-7 -10 -2 -10 -13 -12 -13 -9
-7 -10 -2 -10 -13 -12 -13 -9
-7 -10 -2 -10 -13 -12 -13 -9
-7 -10 -2 -10 -13 -12 -13 -9
-6 -10 -2 -11 -12 -13 -13 -8
-6 -10 -2 -11 -12 -13 -13 -8
-7 -10 -2 -10 -12 -12 -12 -8
-7 -10 -2 -9 -12 -12 -12 -8
-7 -10 -2 -9 -12 -12 -12 -8
-8 -9 0 -8 -11 -11 -11 -9
-8 -9 0 -8 -11 -11 -11 -9
-8 -9 0 -8 -11 -11 -11 -9
-8 -9 0 -8 -11 -11 -11 -9
-8 -9 0 -8 -11 -11 -11 -9
-7 -8 -2 -8 -11 -11 -12 -8
-7 -8 -2 -8 -11 -11 -12 -8
-7 -9 -2 -9 -11 -11 -12 -8
-7 -9 -2 -9 -11 -11 -12 -8
-7 -9 -2 -9 -11 -11 -12 -8
-8 -10 -2 -10 -12 -11 -11 -9
-8 -10 -2 -10 -12 -11 -11 -9
-7 -9 -2 -10 -11 -11 -11 -9
-7 -9 -2 -10 -11 -11 -11 -9
-7 -9 -2 -10 -11 -11 -11 -9
-6 -8 -2 -9 -10 -11 -12 -8
-6 -8 -2 -9 -10 -11 -12 -8
-6 -8 -2 -9 -10 -11 -12 -8
-6 -8 -2 -9 -10 -11 -12 -8
-6 -8 -2 -9 -10 -11 -12 -8
-6 -9 -2 -8 -11 -11 -12 -8
-6 -9 -2 -8 -11 -11 -12 -8
-6 -8 -2 -8 -11 -11 -12 -8
-6 -8 -2 -8 -11 -11 -12 -8
-6 -8 -2 -8 -11 -11 -12 -8
-5 -7 -2 -9 -10 -11 -11 -9
-5 -7 -2 -9 -10 -11 -11 -9
-5 -7 -2 -9 -10 -11 -11 -9
-5 -7 -2 -9 -10 -11 -11 -9
-5 -7 -2 -9 -10 -11 -11 -9
-5 -8 -2 -8 -10 -10 -10 -8
-5 -8 -2 -8 -10 -10 -10 -8
-5 -8 -2 -8 -10 -10 -11 -9
-5 -8 -2 -8 -10 -10 -11 -9
-5 -8 -2 -8 -10 -10 -11 -9
-6 -8 -3 -9 -11 -11 -12 -10
-6 -8 -3 -9 -11 -11 -12 -10
-6 -8 -2 -9 -11 -11 -11 -10
-6 -8 -2 -9 -11 -11 -11 -10
-6 -8 -2 -9 -11 -11 -11 -10
-7 -8 0 -8 -10 -10 -10 -9
-6 -8 0 -8 -10 -10 -10 -9
-5 -8 0 -8 -9 -9 -10 -9
-5 -8 0 -8 -9 -9 -10 -9
-4 -8 0 -8 -9 -9 -10 -9
-3 -7 0 -7 -8 -8 -10 -9
-3 -7 0 -6 -7 -8 -10 -9
-2 -6 1 -4 -6 -7 -9 -9
0 -5 2 -3 -6 -6 -9 -9
0 -5 2 -2 -5 -6 -9 -9
1 -4 3 0 -4 -5 -8 -8
1 -4 3 1 -3 -5 -7 -8
2 -3 4 2 -2 -4 -6 -7
2 -3 5 2 0 -3 -6 -7
2 -3 5 3 1 -3 -5 -7
3 -2 6 4 2 -2 -4 -6
3 -2 6 4 2 -2 -4 -6
3 0 6 4 2 -2 -4 -6
3 0 6 4 2 -2 -4 -6
3 0 6 4 2 -2 -4 -6
4 1 5 5 2 0 -3 -6
5 1 3 4 2 0 -3 -5
6 1 1 3 2 0 -2 -4
7 1 -2 2 2 0 -2 -4
8 1 -4 1 2 0 -2 -3
9 1 -5 0 1 -2 0 -2
9 1 -5 -2 0 -2 0 -2
10 1 -6 -3 -2 -3 0 -2
11 1 -6 -4 -2 -3 0 -2
11 1 -6 -5 -3 -3 0 -2
12 0 -7 -6 -4 -4 -2 -3
12 0 -7 -6 -4 -4 -2 -3
11 0 -7 -5 -4 -4 -2 -3
10 0 -7 -5 -4 -4 -2 -3
10 0 -7 -5 -4 -4 -2 -3
9 -2 -7 -4 -4 -5 -2 -4
9 -3 -7 -5 -4 -5 -3 -5
9 -4 -7 -6 -5 -6 -4 -6
9 -4 -7 -6 -6 -7 -4 -6
9 -5 -7 -7 -6 -7 -5 -7
8 -6 -7 -8 -7 -8 -6 -8
6 -6 -6 -8 -7 -8 -6 -8
5 -6 -6 -8 -7 -8 -6 -8
3 -6 -5 -8 -7 -8 -6 -9
1 -6 -4 -8 -7 -8 -6 -9
-2 -5 -3 -7 -8 -8 -7 -10
-3 -5 -3 -7 -8 -8 -7 -10
-3 -5 -3 -7 -8 -8 -8 -11
-4 -6 -2 -7 -8 -8 -9 -12
-5 -6 -2 -7 -8 -8 -9 -12
-6 -7 0 -7 -9 -9 -10 -13
-6 -7 0 -7 -9 -9 -10 -13
-6 -7 0 -7 -9 -9 -10 -13
-6 -7 0 -7 -9 -10 -10 -14
-6 -7 0 -7 -9 -10 -10 -14
-6 -7 -2 -8 -10 -11 -11 -15
-6 -7 -2 -8 -10 -11 -11 -15
-6 -6 -2 -8 -10 -11 -11 -15
-6 -5 -2 -7 -9 -11 -11 -14
-6 -5 -2 -7 -9 -11 -11 -14
-5 -4 -2 -6 -8 -10 -11 -13
-5 -4 -2 -6 -8 -10 -11 -13
-5 -4 -2 -6 -8 -10 -11 -13
-5 -5 -2 -5 -8 -10 -11 -13
-5 -5 -2 -5 -8 -10 -11 -13
-6 -6 1 1 -4 -7 -10 -14
-6 -5 5 10 8 0 -6 -13
-5 -5 9 19 18 6 -2 -13
-4 -4 13 28 28 12 3 -12
-4 -3 17 37 38 17 7 -11
3 4 24 59 65 39 21 -3
14 16 33 93 110 78 49 13
26 28 43 128 155 118 76 29
37 40 52 161 200 157 104 45
50 53 61 196 244 196 132 60
60 63 64 210 266 218 150 72
69 70 59 197 259 217 157 81
78 77 53 186 253 216 165 90
88 85 48 174 245 215 173 99
97 93 42 162 238 214 181 107
94 89 20 115 190 180 162 101
74 69 -19 30 96 109 114 77
56 51 -59 -56 1 38 66 53
36 31 -99 -141 -95 -32 18 28
17 12 -139 -227 -189 -104 -30 4
5 0 -160 -270 -238 -142 -58 -11
1 -7 -160 -262 -233 -144 -61 -13
-4 -13 -160 -255 -228 -146 -65 -15
-9 -19 -160 -246 -223 -148 -68 -18
-13 -24 -160 -239 -218 -150 -72 -20
-15 -27 -150 -219 -201 -144 -70 -21
-12 -25 -128 -185 -173 -124 -61 -19
-10 -22 -105 -150 -144 -105 -52 -17
-7 -20 -82 -116 -114 -86 -43 -15
-4 -17 -60 -82 -86 -66 -33 -13
-2 -15 -44 -59 -65 -52 -27 -11
-3 -13 -35 -48 -56 -46 -24 -11
-3 -11 -27 -36 -46 -38 -22 -11
-4 -9 -19 -26 -36 -31 -19 -11
-5 -7 -11 -15 -27 -24 -16 -11
-6 -6 -6 -9 -21 -20 -14 -12
-6 -6 -5 -7 -19 -19 -14 -13
-6 -7 -4 -6 -18 -18 -14 -13
-6 -8 -3 -5 -16 -17 -14 -14
-6 -8 -2 -3 -14 -16 -14 -15
-7 -9 0 -2 -13 -15 -15 -16
-7 -9 0 -2 -12 -14 -15 -16
-7 -9 1 -2 -12 -14 -15 -16
-7 -9 2 -2 -11 -13 -14 -15
-7 -9 2 -2 -10 -12 -14 -15
-7 -8 3 0 -9 -11 -13 -14
-7 -8 3 0 -9 -11 -13 -14
-7 -8 3 0 -9 -11 -13 -14
-7 -8 3 1 -9 -11 -13 -14
-7 -8 3 1 -9 -11 -13 -14
-6 -8 3 2 -9 -11 -12 -14
-6 -8 4 2 -9 -11 -12 -14
-6 -8 4 2 -9 -11 -12 -14
-6 -8 5 2 -9 -11 -12 -14
-6 -8 6 2 -9 -11 -12 -14
-6 -8 7 2 -8 -11 -11 -14
-6 -8 7 2 -8 -11 -11 -14
-6 -8 7 2 -8 -11 -12 -14
-7 -8 7 2 -8 -11 -13 -14
-7 -8 7 2 -8 -11 -13 -14
-8 -8 6 3 -7 -11 -14 -13
-8 -8 6 3 -7 -11 -14 -13
-8 -8 6 3 -7 -11 -14 -13
-7 -7 6 3 -7 -10 -13 -13
-7 -7 6 3 -7 -10 -13 -13
-6 -6 7 4 -6 -9 -12 -12
-6 -6 7 4 -6 -9 -12 -12
-6 -6 7 4 -6 -9 -12 -12
-5 -6 7 4 -5 -9 -12 -11
-5 -6 7 4 -5 -9 -12 -11
-4 -5 8 5 -4 -8 -11 -10
-4 -5 8 5 -4 -8 -10 -10
-4 -5 8 5 -4 -7 -10 -9
-4 -5 8 5 -4 -6 -9 -8
-4 -5 8 5 -4 -6 -8 -8
-4 -6 8 5 -3 -5 -7 -7
-4 -6 8 5 -3 -5 -7 -7
-4 -6 8 5 -3 -5 -7 -7
-4 -6 8 5 -3 -5 -8 -7
-4 -6 8 5 -3 -5 -8 -7
-4 -6 8 6 -2 -6 -9 -7
-4 -6 8 6 -2 -6 -9 -7
-4 -5 8 7 0 -6 -8 -7
-3 -4 8 8 1 -5 -7 -6
-3 -4 8 8 1 -5 -7 -6
-2 -3 9 9 2 -4 -6 -5
-2 -3 9 9 2 -4 -6 -5
-2 -3 9 9 2 -4 -6 -5
0 -3 9 9 2 -4 -5 -4
0 -3 9 9 2 -4 -5 -4
1 -3 8 9 2 -3 -4 -3
1 -3 8 10 3 -2 -4 -3
1 -3 8 10 3 -2 -4 -3
1 -3 8 11 4 0 -3 -2
1 -3 8 12 5 1 -3 -2
0 -2 9 13 6 2 -2 0
1 -2 9 13 6 2 -2 0
2 0 9 13 6 2 0 1
3 1 9 13 6 2 1 2
4 1 9 13 6 2 1 2
5 2 10 13 7 3 2 3
5 3 10 14 8 4 3 4
5 4 10 14 8 5 4 4
5 5 11 15 9 6 5 5
5 6 11 16 10 7 6 6
5 7 12 17 11 8 7 7
5 7 12 17 12 9 7 8
6 8 12 18 12 9 7 8
7 9 12 19 13 10 8 9
7 9 12 19 14 11 8 10
8 10 13 20 15 12 9 11
8 11 13 21 15 12 10 12
8 12 14 21 15 13 12 12
9 13 15 22 16 14 13 13
9 14 15 23 16 14 15 14
10 15 16 24 17 15 16 15
12 17 16 24 17 16 17 16
14 19 16 24 18 16 17 17
16 21 16 24 19 17 18 18
17 22 16 24 19 18 19 19
19 24 17 25 20 19 20 20
19 24 17 25 20 19 21 21
19 24 17 25 21 19 23 22
18 25 18 25 22 20 24 23
18 25 18 25 22 20 26 24
17 26 19 25 23 21 27 25
18 27 19 25 23 22 27 26
20 29 19 25 23 24 28 27
21 30 19 25 23 25 29 28
23 32 19 25 23 27 29 29
24 33 19 25 23 28 30 30
24 33 19 25 23 28 31 30
24 34 19 25 23 28 33 31
24 35 19 25 23 28 34 32
24 35 19 25 23 28 36 32
25 36 19 24 24 29 37 33
26 36 19 24 25 30 37 33
26 37 19 25 25 32 37 33
27 38 19 26 26 33 38 34
28 38 19 26 27 35 38 34
29 39 19 27 28 36 39 35
27 38 19 27 29 36 39 34
25 37 19 28 31 36 39 34
23 35 19 29 32 37 38 33
22 34 19 29 34 37 38 32
20 33 19 30 35 38 37 31
20 31 19 30 35 36 35 29
20 30 19 30 35 35 33 27
20 28 18 30 34 33 31 25
20 27 18 30 34 32 29 24
20 25 17 29 33 30 27 22
18 24 17 29 32 29 26 21
16 22 17 28 31 29 25 20
14 21 17 27 30 28 24 19
13 19 17 27 29 27 23 18
11 18 16 26 28 26 22 17
11 17 15 25 27 24 20 16
11 16 15 24 25 23 18 15
10 14 14 22 24 21 16 13
10 13 13 21 22 20 15 12
9 12 12 20 21 18 13 11
9 12 12 19 20 17 12 11
9 11 12 18 19 16 11 10
8 10 11 17 18 15 10 9
8 10 11 16 17 14 9 9
7 9 10 15 16 13 8 8
6 9 10 15 16 12 8 7
6 8 9 15 15 11 8 7
5 7 8 14 14 10 8 6
4 7 8 14 14 9 8 5
3 6 7 13 13 8 7 4
3 6 7 13 13 8 7 4
4 6 7 13 13 8 7 4
5 6 8 12 13 8 7 4
5 6 8 12 13 8 7 4
6 6 9 11 13 8 6 5
6 5 9 11 12 8 6 5
5 5 9 11 12 7 6 5
4 4 8 10 11 6 5 5
4 3 8 10 10 6 5 5
3 2 7 9 9 5 4 4
3 2 7 9 9 5 4 4
3 2 7 9 9 5 3 4
3 2 7 9 9 5 2 4
3 2 7 9 9 5 2 4
2 2 8 9 9 4 1 3
2 2 8 9 9 4 1 3
2 2 8 8 8 4 1 3
2 2 8 8 8 3 1 3
2 2 8 7 7 3 1 3
1 1 7 6 6 2 0 2
1 1 7 6 6 2 0 2
1 1 7 6 6 2 0 2
0 1 7 6 6 2 0 2
0 1 7 6 6 2 0 2
-2 1 6 7 6 1 -2 1
-2 1 6 6 6 1 -2 1
-2 1 6 6 6 1 -2 1
0 1 5 5 5 1 -2 1
0 1 5 4 5 1 -2 1
1 1 4 3 4 0 -3 1
1 1 4 3 4 0 -3 1
1 1 4 3 4 0 -3 1
1 0 4 3 4 0 -3 0
1 0 4 3 4 0 -3 0
0 -2 5 4 4 -2 -4 -2
0 -2 5 4 4 -2 -4 -2
0 -2 5 4 4 -2 -4 -2
0 -2 5 3 4 -2 -4 -2
0 -2 5 3 4 -2 -4 -2
-2 -2 5 2 3 -2 -4 -2
-2 -2 5 2 3 -2 -4 -2
-2 -2 5 2 3 -2 -4 -2
-2 -2 5 2 3 -2 -4 -2
-2 -2 5 2 3 -2 -4 -2
-2 -2 5 3 2 -3 -5 0
-2 -2 5 3 2 -3 -5 0
-2 -2 5 2 2 -3 -5 0
0 -2 4 2 1 -4 -5 0
0 -2 4 1 1 -4 -5 0
1 0 3 0 0 -5 -5 -2
0 0 3 0 0 -5 -5 -2
-2 -2 3 0 0 -5 -5 -2
-3 -2 3 0 0 -4 -5 -2
-5 -3 3 0 0 -4 -5 -2
-6 -4 3 -2 -2 -3 -6 -3
-6 -4 3 -2 -2 -3 -6 -3
-5 -4 3 -2 -2 -3 -6 -3
-5 -4 3 -2 -2 -4 -6 -3
-4 -4 3 -2 -2 -4 -6 -3
-3 -5 3 -3 -3 -5 -7 -2
-3 -5 3 -3 -3 -5 -7 -2
-3 -5 3 -3 -3 -5 -7 -2
-3 -4 4 -3 -3 -5 -7 -2
-3 -4 4 -3 -3 -5 -7 -2
-4 -3 5 -4 -3 -4 -6 -3
-4 -3 5 -4 -3 -4 -6 -3
-3 -3 5 -3 -3 -4 -6 -3
-3 -2 5 -3 -3 -4 -6 -3
-2 -2 5 -2 -3 -4 -6 -3
0 0 6 0 -2 -4 -6 -3
0 0 6 0 -2 -4 -6 -3
0 0 6 0 0 -3 -5 -3
1 0 7 1 0 -3 -5 -2
1 0 7 1 1 -2 -4 -2
2 0 8 2 2 0 -3 0
2 1 9 3 2 0 -3 0
2 1 10 4 3 0 -2 0
2 2 11 5 3 1 -2 1
2 3 13 6 4 1 0 1
3 4 14 7 5 2 1 2
3 4 13 7 5 2 1 2
3 4 13 7 5 2 1 2
3 4 12 7 5 2 1 2
3 4 11 7 5 2 1 2
2 4 10 6 5 2 1 2
4 4 7 5 5 2 1 2
6 4 5 4 5 2 1 2
7 4 2 3 5 2 1 2
9 4 -2 1 5 2 1 2
11 4 -4 0 4 3 1 3
11 4 -4 -2 3 2 1 3
11 4 -4 -3 2 2 1 3
11 4 -5 -4 1 1 1 3
11 4 -5 -6 -2 0 1 3
11 3 -6 -7 -3 -2 0 4
11 3 -6 -7 -3 -2 0 4
10 3 -6 -7 -3 -2 0 4
10 2 -6 -7 -3 -3 0 3
9 2 -6 -7 -3 -3 0 3
8 1 -5 -8 -4 -4 -2 2
8 0 -5 -8 -4 -4 -2 2
8 0 -5 -8 -4 -4 -2 1
8 -2 -5 -9 -5 -5 -3 1
8 -3 -5 -9 -5 -5 -3 0
8 -4 -6 -10 -6 -6 -4 -2
6 -4 -5 -10 -6 -6 -5 -2
4 -4 -4 -10 -6 -6 -5 -3
1 -5 -3 -9 -7 -7 -6 -3
-2 -5 -2 -9 -7 -7 -7 -4
-4 -6 0 -8 -8 -8 -8 -5
-5 -6 0 -8 -9 -8 -9 -5
-5 -6 0 -9 -9 -9 -9 -6
-6 -6 0 -9 -10 -9 -10 -6
-7 -6 0 -10 -11 -10 -11 -7
-8 -7 1 -11 -12 -11 -12 -8
-8 -7 1 -11 -12 -11 -12 -8
-8 -7 1 -11 -12 -11 -12 -8
-9 -7 1 -11 -12 -11 -12 -8
-9 -7 1 -11 -12 -11 -12 -8
-10 -8 1 -11 -13 -12 -12 -9
-10 -8 1 -11 -13 -12 -12 -9
-10 -8 1 -11 -13 -12 -12 -9
-10 -8 1 -11 -13 -12 -12 -9
-10 -8 1 -11 -13 -12 -12 -9
-11 -7 2 -11 -13 -12 -12 -9
-11 -7 2 -11 -13 -12 -12 -9
-11 -7 2 -10 -13 -12 -12 -9
-10 -7 2 -10 -12 -11 -12 -9
-10 -7 2 -9 -12 -11 -12 -9
-9 -8 3 -7 -11 -10 -12 -9
-9 -8 6 -3 -7 -8 -12 -9
-9 -8 9 2 -3 -6 -12 -10
-10 -9 12 6 1 -5 -12 -10
-10 -9 14 10 5 -3 -12 -11
-10 -9 18 20 16 6 -8 -10
-2 1 24 47 52 35 14 2
6 9 30 73 87 64 34 12
14 18 37 100 122 94 55 23
22 26 44 127 158 123 76 33
31 35 49 150 191 151 98 46
46 49 51 162 213 173 123 61
59 62 54 174 235 195 148 77
73 74 56 185 258 218 173 93
88 88 59 197 280 240 198 109
96 95 54 188 277 242 207 117
81 78 19 107 185 173 159 95
67 61 -16 25 93 103 112 73
53 45 -51 -56 0 32 64 51
37 28 -85 -138 -93 -37 17 29
25 14 -114 -205 -169 -95 -23 11
17 6 -127 -223 -188 -110 -35 4
9 -3 -140 -241 -207 -126 -48 -3
1 -11 -152 -260 -227 -141 -60 -10
-7 -18 -164 -278 -246 -157 -71 -16
-14 -25 -171 -284 -255 -165 -80 -22
-14 -23 -147 -243 -221 -146 -71 -20
-14 -20 -124 -203 -188 -127 -62 -18
-13 -18 -101 -163 -154 -107 -53 -15
-13 -15 -78 -122 -120 -88 -44 -13
-12 -13 -58 -88 -92 -71 -36 -11
-11 -12 -48 -73 -78 -61 -32 -11
-10 -11 -37 -59 -65 -52 -29 -11
-9 -10 -27 -44 -52 -43 -25 -11
-8 -8 -17 -29 -38 -33 -21 -11
-7 -7 -8 -17 -27 -25 -18 -10
-7 -7 -6 -15 -24 -23 -18 -11
-7 -7 -4 -12 -22 -22 -18 -12
-7 -7 -2 -10 -19 -20 -18 -13
-7 -7 1 -7 -17 -18 -18 -15
-8 -8 3 -5 -14 -16 -17 -16
-8 -8 3 -5 -14 -16 -17 -16
-9 -8 3 -4 -13 -15 -16 -16
-9 -9 3 -3 -12 -14 -15 -16
-10 -9 3 -2 -11 -13 -14 -16
-11 -10 4 0 -10 -12 -13 -16
-11 -10 4 0 -10 -12 -13 -16
-11 -10 4 0 -10 -12 -13 -16
-11 -10 4 0 -9 -12 -13 -16
-11 -10 4 0 -9 -12 -13 -16
-10 -10 5 -2 -8 -11 -13 -17
-10 -10 5 -2 -8 -11 -13 -17
-10 -10 5 -2 -8 -11 -13 -17
-9 -10 5 0 -8 -11 -14 -17
-9 -10 5 0 -8 -11 -14 -17
-8 -9 5 1 -7 -10 -15 -17
-8 -9 5 1 -7 -10 -15 -17
-8 -9 5 1 -7 -10 -14 -17
-9 -9 6 1 -6 -9 -14 -17
-9 -9 6 1 -6 -9 -13 -17
-10 -9 7 2 -5 -8 -12 -16
-10 -9 7 2 -5 -8 -12 -16
-10 -9 7 2 -4 -8 -12 -16
-9 -8 8 3 -4 -8 -11 -16
-9 -8 8 3 -3 -8 -11 -16
-8 -7 9 4 -2 -7 -10 -16
-8 -7 9 4 -2 -7 -10 -16
-8 -7 9 4 -2 -7 -10 -16
-8 -7 9 4 -2 -7 -10 -16
-8 -7 9 4 -2 -7 -10 -16
-9 -8 8 3 -3 -8 -11 -16
-9 -8 8 3 -3 -8 -11 -15
-8 -8 8 4 -2 -8 -11 -13
-8 -7 9 5 -2 -7 -11 -12
-7 -7 9 6 0 -7 -11 -11
-6 -6 10 7 1 -6 -10 -9
-6 -6 10 7 1 -6 -10 -9
-6 -6 10 7 1 -6 -10 -8
-6 -6 10 7 1 -6 -10 -7
-6 -6 10 7 1 -6 -10 -6
-7 -6 10 8 1 -6 -10 -5
-7 -6 10 8 2 -6 -10 -4
-7 -5 10 9 3 -5 -9 -3
-6 -5 11 9 4 -5 -9 -2
-6 -4 11 10 5 -4 -8 0
-5 -3 12 11 6 -3 -7 1
-5 -3 12 11 6 -3 -7 1
-5 -3 12 11 6 -3 -7 1
-5 -4 12 11 6 -3 -7 1
-5 -4 12 11 6 -3 -7 1
-6 -5 11 11 6 -4 -7 1
-6 -5 11 11 6 -3 -7 2
-5 -5 11 12 7 -2 -6 3
-4 -4 11 12 8 0 -6 4
-3 -4 11 13 9 1 -5 5
-2 -3 12 14 10 2 -4 6
-2 -3 12 14 10 2 -4 6
-2 -2 12 15 10 3 -4 6
0 0 12 15 11 3 -3 7
0 1 12 16 11 4 -3 7
1 2 13 17 12 5 -2 8
1 2 13 18 12 5 -2 8
2 3 13 19 13 5 0 8
2 4 13 20 14 6 1 9
3 5 13 21 15 6 2 9
4 6 14 23 16 7 3 10
4 6 14 23 17 8 3 11
4 7 15 24 18 9 4 12
4 8 15 25 19 10 5 13
4 9 16 26 20 11 6 14
4 10 17 27 22 12 7 16
4 11 17 28 22 12 8 17
5 13 17 29 23 13 9 18
5 14 18 30 24 13 10 19
6 15 18 31 25 14 11 20
7 17 19 32 26 15 13 21
7 17 19 32 26 15 13 21
7 17 19 32 26 16 13 22
7 17 19 32 26 17 14 22
7 17 19 32 26 18 14 23
8 18 20 32 26 19 15 24
8 19 20 32 26 19 15 24
9 20 20 32 25 19 15 24
10 21 20 31 24 19 16 24
11 22 20 31 23 19 16 24
12 24 21 30 22 18 17 24
12 24 21 29 21 18 17 24
12 24 20 27 20 17 17 25
12 24 20 25 18 16 17 26
12 24 19 24 17 15 17 27
11 25 18 22 15 14 16 28
11 25 18 21 15 14 16 28
11 25 18 20 14 13 16 28
11 25 18 19 13 13 16 28
11 25 18 18 12 12 16 28
12 25 17 17 11 11 16 28
12 25 17 16 11 11 16 28
11 25 16 15 10 11 15 27
11 24 16 14 9 10 15 27
10 24 15 13 8 10 14 26
9 23 14 12 7 9 13 25
9 22 14 12 7 9 12 24
9 20 14 12 7 9 11 23
9 18 14 12 7 8 10 22
9 17 14 12 7 8 9 21
8 15 15 11 7 7 8 19
7 14 15 11 7 7 8 18
6 13 14 10 7 7 7 17
5 12 13 9 6 6 6 16
4 11 12 8 6 6 5 15
3 10 11 7 5 5 4 14
3 9 11 7 5 5 3 14
2 8 11 7 4 4 2 13
1 7 10 6 4 3 1 12
0 6 10 6 3 2 0 11
-2 5 9 5 2 1 -2 10
-2 5 9 4 1 1 -2 10
-2 4 9 2 0 0 -2 9
-2 3 8 1 -2 -2 -3 8
-2 2 8 -2 -3 -3 -3 7
-3 1 7 -4 -4 -4 -4 6
-3 1 7 -4 -4 -4 -4 6
-4 0 7 -4 -4 -4 -5 6
-4 -2 7 -4 -4 -4 -5 6
-5 -3 7 -4 -4 -4 -6 6
-6 -4 8 -4 -4 -5 -7 5
-6 -4 8 -4 -4 -5 -7 5
-6 -4 8 -4 -4 -5 -7 5
-6 -4 7 -4 -4 -5 -7 5
-6 -4 7 -4 -4 -5 -7 5
-6 -4 6 -4 -5 -5 -7 4
-6 -4 6 -4 -5 -5 -7 4
-6 -4 6 -4 -5 -5 -7 4
-6 -4 6 -4 -5 -5 -7 4
-6 -4 6 -4 -5 -5 -7 4
-6 -5 6 -4 -4 -5 -8 3
-6 -5 6 -4 -4 -5 -8 3
-5 -5 6 -4 -4 -5 -8 3
-5 -5 6 -3 -3 -5 -7 3
-4 -5 6 -3 -3 -5 -7 3
-3 -4 6 -2 -2 -5 -6 3
-3 -4 6 -2 -2 -5 -6 3
-3 -4 6 -2 -2 -5 -6 3
-4 -4 6 -2 0 -4 -6 3
-4 -4 6 -2 0 -4 -6 3
-5 -4 7 0 1 -3 -7 2
-5 -4 7 0 1 -3 -7 2
-5 -4 7 0 1 -3 -7 2
-5 -4 7 0 1 -3 -7 2
-5 -4 7 0 1 -3 -7 2
-5 -5 6 0 0 -4 -7 2
-5 -5 6 0 0 -4 -7 2
-5 -5 6 0 0 -4 -7 2
-6 -5 6 0 0 -4 -7 2
-6 -5 6 0 0 -4 -7 2
-7 -6 7 1 0 -3 -8 1
-7 -6 7 1 0 -3 -8 1
-7 -6 7 1 0 -3 -8 1
-6 -5 7 1 0 -3 -8 1
-6 -5 7 1 0 -3 -8 1
-5 -4 6 1 1 -3 -7 1
-5 -4 6 1 1 -3 -7 1
-5 -4 6 1 1 -3 -7 1
-5 -4 6 1 1 -3 -7 1
-5 -4 6 1 1 -3 -7 1
-5 -5 6 0 0 -4 -8 0
-5 -5 6 0 0 -4 -8 0
-5 -5 6 0 0 -4 -8 0
-5 -5 6 0 0 -4 -8 0
-5 -5 6 0 0 -4 -8 0
-6 -5 6 -2 -2 -4 -8 -2
-6 -5 6 -2 -2 -4 -8 -2
-6 -5 6 -2 -2 -4 -8 -2
-6 -5 6 -2 -2 -4 -8 -2
-6 -5 6 -2 -2 -4 -8 -2
-5 -4 7 -3 0 -4 -7 -3
-5 -4 7 -3 0 -4 -7 -3
-5 -4 7 -3 -2 -4 -7 -3
-5 -4 6 -3 -2 -4 -7 -3
-5 -4 6 -3 -3 -4 -7 -3
-4 -5 5 -3 -4 -4 -7 -2
-4 -5 5 -3 -4 -4 -7 -2
-4 -5 5 -3 -4 -4 -7 -2
-5 -5 5 -4 -5 -4 -7 -2
-5 -5 5 -4 -5 -4 -7 -2
-6 -6 4 -5 -6 -5 -8 -3
-6 -6 4 -5 -6 -5 -8 -3
-6 -6 4 -5 -6 -5 -8 -3
-7 -6 4 -5 -6 -5 -8 -3
-7 -6 4 -5 -6 -5 -8 -3
-8 -6 3 -5 -6 -5 -8 -3
-8 -6 3 -5 -6 -5 -8 -3
-7 -6 3 -5 -6 -5 -8 -3
-7 -6 3 -5 -6 -5 -8 -3
-6 -6 3 -5 -6 -5 -8 -3
-5 -5 4 -6 -7 -6 -9 -4
-5 -5 4 -6 -7 -6 -9 -4
-5 -5 4 -6 -7 -6 -9 -4
-5 -5 4 -6 -7 -6 -9 -4
-5 -5 4 -6 -7 -6 -9 -4
-6 -5 5 -6 -6 -6 -9 -5
-6 -5 5 -6 -6 -6 -9 -5
-6 -5 5 -5 -5 -5 -9 -5
-6 -5 6 -4 -4 -5 -9 -5
-6 -5 6 -3 -3 -4 -9 -5
-5 -4 7 -2 -2 -3 -8 -4
-4 -4 7 0 -2 -3 -8 -4
-3 -4 8 1 0 -2 -7 -4
-2 -4 9 2 1 0 -6 -3
0 -4 10 3 2 1 -5 -3
1 -3 11 5 3 2 -4 -2
1 -3 11 5 3 2 -4 -2
1 -2 11 5 3 2 -4 -2
1 0 12 5 3 2 -4 -2
1 1 12 5 3 2 -4 -2
0 2 13 6 4 2 -3 0
1 2 11 6 4 2 -3 0
3 3 9 5 4 2 -3 1
4 3 7 4 3 2 -2 1
6 4 5 3 3 2 -2 2
8 5 2 2 2 2 0 3
8 4 2 2 2 2 0 3
8 3 1 1 2 2 0 3
8 2 0 1 1 2 0 3
8 1 -2 0 1 2 0 3
8 0 -3 -2 0 1 1 3
8 0 -3 -2 -2 1 1 3
8 0 -3 -3 -3 0 0 3
8 0 -3 -3 -4 0 -2 2
8 0 -3 -4 -5 -2 -3 2
7 1 -4 -5 -6 -3 -4 1
7 1 -4 -5 -6 -3 -4 1
6 0 -4 -6 -6 -3 -4 1
6 -2 -4 -7 -6 -3 -4 0
5 -3 -4 -8 -6 -3 -4 0
4 -4 -4 -9 -6 -4 -4 -2
4 -4 -4 -9 -6 -4 -4 -2
3 -5 -4 -9 -7 -5 -4 -3
2 -5 -4 -9 -7 -5 -5 -3
1 -6 -4 -9 -8 -6 -5 -4
0 -7 -4 -8 -9 -7 -6 -5
-2 -7 -3 -8 -9 -7 -6 -5
-4 -7 0 -8 -9 -7 -7 -6
-5 -7 1 -8 -9 -7 -7 -6
-7 -7 3 -8 -9 -7 -8 -7
-9 -7 5 -7 -9 -8 -9 -8
-9 -7 5 -7 -10 -8 -10 -9
-9 -7 4 -8 -11 -9 -11 -10
-9 -8 3 -9 -12 -10 -12 -11
-9 -8 2 -10 -13 -11 -13 -12
-10 -9 1 -11 -14 -12 -14 -13
-10 -9 1 -11 -14 -12 -14 -13
-10 -9 1 -11 -14 -12 -14 -13
-10 -9 2 -11 -13 -11 -14 -13
-10 -9 2 -11 -13 -11 -14 -13
-10 -8 3 -10 -12 -10 -13 -12
-10 -8 3 -10 -12 -10 -13 -12
-11 -8 3 -10 -12 -10 -13 -12
-11 -8 2 -10 -12 -10 -13 -13
-12 -8 2 -10 -12 -10 -13 -13
-13 -8 1 -10 -12 -10 -12 -14
-13 -8 2 -9 -12 -10 -12 -14
-13 -9 2 -7 -11 -10 -12 -14
-13 -10 3 -5 -10 -10 -12 -14
-13 -11 4 -3 -9 -10 -12 -14
-13 -11 5 -2 -9 -10 -12 -14
-10 -8 9 15 12 7 -3 -12
-7 -4 13 30 32 23 8 -8
-5 2 17 46 53 40 18 -5
-2 6 21 61 73 57 28 0
1 10 25 76 94 73 38 3
16 23 37 112 140 111 69 22
31 36 49 148 185 149 99 42
46 50 61 184 230 187 129 60
61 63 72 219 276 224 159 79
75 75 84 255 321 262 189 98
76 74 61 197 261 219 168 94
75 71 36 137 197 174 143 89
75 68 12 77 135 129 119 84
74 65 -13 18 72 84 96 78
74 62 -37 -43 9 38 72 73
56 45 -67 -99 -51 -6 40 53
38 27 -98 -155 -110 -49 8 33
20 10 -128 -212 -171 -93 -24 13
2 -7 -158 -268 -230 -137 -57 -8
-16 -24 -188 -324 -289 -181 -89 -27
-17 -25 -172 -294 -265 -169 -83 -27
-18 -24 -153 -259 -237 -154 -77 -26
-18 -23 -135 -225 -208 -140 -70 -24
-19 -22 -116 -191 -181 -127 -64 -23
-19 -22 -98 -156 -153 -112 -58 -22
-18 -18 -83 -133 -132 -97 -51 -20
-15 -15 -68 -108 -111 -82 -44 -18
-13 -12 -54 -85 -90 -67 -36 -16
-10 -9 -39 -61 -69 -52 -29 -14
-8 -6 -25 -36 -48 -37 -23 -12
-8 -6 -21 -30 -43 -33 -22 -12
-9 -7 -17 -25 -37 -30 -21 -13
-10 -9 -13 -19 -32 -26 -20 -15
-11 -10 -9 -14 -27 -23 -19 -16
-12 -11 -5 -9 -22 -20 -19 -17
-13 -12 -4 -8 -21 -19 -18 -18
-13 -12 -4 -8 -20 -18 -18 -18
-13 -12 -4 -8 -19 -18 -18 -19
-13 -12 -4 -8 -18 -17 -18 -19
-13 -12 -4 -8 -18 -17 -18 -19
-13 -11 -3 -7 -17 -16 -18 -20
-13 -11 -3 -7 -17 -16 -18 -20
-12 -11 -2 -6 -16 -16 -17 -20
-12 -11 -2 -6 -16 -16 -17 -20
-12 -11 -2 -6 -16 -16 -17 -20
-11 -10 0 -5 -15 -15 -16 -21
-11 -10 0 -5 -15 -15 -16 -21
-12 -10 0 -5 -14 -14 -16 -21
-12 -10 0 -5 -14 -14 -16 -21
-12 -10 0 -5 -14 -14 -16 -21
-13 -10 1 -6 -13 -13 -17 -21
-12 -10 1 -6 -13 -13 -16 -21
-12 -10 1 -5 -13 -13 -15 -21
-11 -10 1 -5 -13 -13 -14 -21
-11 -10 1 -5 -13 -13 -14 -21
-10 -9 1 -4 -12 -12 -13 -21
-11 -9 1 -4 -12 -12 -13 -21
-11 -9 1 -4 -12 -12 -13 -21
-12 -9 1 -4 -12 -12 -13 -21
-12 -9 1 -4 -12 -12 -13 -21
-13 -8 2 -4 -12 -11 -14 -21
-13 -8 2 -4 -12 -11 -14 -21
-13 -9 2 -4 -12 -11 -14 -21
-13 -9 2 -4 -12 -11 -14 -21
-13 -9 2 -4 -12 -11 -14 -21
-12 -10 3 -3 -11 -12 -14 -20
-12 -10 3 -3 -11 -12 -14 -20
-12 -10 3 -4 -11 -12 -15 -21
-12 -10 3 -4 -11 -12 -15 -21
-12 -10 3 -4 -11 -12 -15 -21
-12 -11 2 -5 -12 -11 -16 -22
-12 -10 2 -4 -12 -11 -15 -22
-12 -10 2 -4 -11 -11 -15 -22
-12 -9 2 -3 -11 -11 -14 -22
-12 -9 2 -3 -11 -11 -14 -22
-11 -8 2 -2 -10 -11 -13 -22
-11 -8 2 -2 -10 -11 -13 -22
-11 -8 2 -2 -10 -11 -14 -22
-11 -8 2 -2 -10 -11 -14 -22
-11 -8 2 -2 -10 -11 -14 -22
-10 -9 1 -2 -10 -11 -15 -21
-10 -9 1 0 -10 -11 -14 -21
-10 -9 1 0 -10 -11 -13 -20
-10 -9 1 1 -10 -11 -12 -20
-10 -9 1 1 -10 -11 -11 -20
-9 -8 1 2 -9 -10 -10 -19
-9 -8 1 2 -9 -10 -10 -18
-8 -8 1 3 -8 -9 -10 -17
-8 -8 1 3 -8 -9 -10 -16
-8 -8 1 3 -8 -9 -10 -16
-7 -7 2 4 -7 -8 -11 -14
-7 -6 2 5 -6 -7 -10 -13
-7 -5 2 5 -5 -7 -9 -11
-7 -4 2 6 -4 -6 -8 -10
-7 -4 2 6 -4 -6 -7 -9
-6 -3 3 7 -3 -5 -6 -7
-6 -3 3 8 -2 -4 -6 -6
-6 -3 3 9 0 -4 -5 -5
-6 -3 3 10 1 -3 -5 -4
-6 -3 3 10 1 -3 -5 -3
-6 -2 4 11 2 -2 -4 -2
-5 0 4 12 3 0 -3 0
-4 2 5 12 3 1 -2 1
-3 3 5 13 4 2 0 2
-2 4 5 13 4 2 1 2
0 5 6 15 5 3 2 4
0 6 7 16 6 4 3 6
0 7 7 17 7 5 4 7
0 8 8 18 8 6 5 9
0 9 8 19 9 7 6 10
0 10 9 20 10 8 7 11
1 11 9 20 10 8 8 11
2 11 9 20 10 8 9 11
3 12 9 20 10 8 10 11
4 12 9 20 10 8 10 11
5 14 9 20 9 9 11 12
6 16 9 20 9 9 11 13
7 17 9 20 9 9 11 14
8 19 9 20 9 9 11 15
8 20 9 20 9 9 11 15
9 21 8 19 8 9 12 16
8 21 8 18 8 9 13 17
7 21 8 17 8 10 14 18
6 21 8 16 8 10 15 19
5 21 8 16 8 10 16 19
5 21 9 14 7 11 17 20
6 22 9 12 6 11 17 20
8 22 9 11 6 11 17 20
9 23 9 9 5 11 17 20
10 23 9 8 5 11 17 20
11 24 8 7 4 11 17 20
10 24 8 7 3 11 17 20
9 24 8 6 3 11 17 20
8 24 8 6 2 11 17 20
8 24 8 6 2 11 17 20
7 22 7 5 1 11 16 20
7 20 6 5 1 11 15 19
6 19 6 4 1 10 14 17
6 17 5 4 1 10 13 16
6 16 5 4 1 10 12 15
4 14 4 3 2 9 11 13
3 11 4 3 2 8 10 12
1 9 4 3 2 7 9 10
0 7 4 3 2 6 8 9
-2 5 4 3 2 5 8 8
-3 3 5 2 2 4 6 6
-3 1 4 1 1 3 5 5
-3 0 3 0 1 2 4 4
-3 -3 2 -2 0 1 3 3
-3 -4 1 -2 0 0 2 2
-4 -7 0 -3 -3 -3 0 0
-4 -9 0 -3 -5 -5 -3 -3
-5 -11 0 -4 -6 -6 -5 -5
-5 -14 0 -4 -8 -8 -6 -6
-5 -16 0 -4 -9 -9 -8 -8
-6 -17 0 -5 -10 -10 -9 -9
-6 -17 0 -6 -10 -11 -10 -10
-7 -18 -2 -7 -11 -12 -11 -10
-7 -18 -2 -8 -11 -13 -12 -11
-7 -18 -2 -9 -11 -13 -13 -11
-8 -19 -3 -10 -12 -14 -14 -12
-8 -19 -3 -10 -12 -14 -14 -12
-7 -19 -2 -10 -12 -14 -14 -13
-7 -19 -2 -10 -12 -14 -14 -13
-7 -19 -2 -10 -12 -14 -14 -13
-6 -20 0 -10 -13 -14 -13 -14
-7 -20 1 -10 -13 -14 -13 -14
-8 -20 2 -9 -13 -14 -14 -14
-9 -20 3 -9 -13 -14 -14 -14
-10 -20 3 -9 -13 -14 -14 -14
-11 -17 4 -8 -13 -13 -14 -14
-10 -15 3 -8 -12 -13 -13 -12
-9 -13 2 -8 -12 -13 -11 -10
-8 -10 1 -8 -11 -13 -10 -9
-7 -8 0 -8 -11 -13 -9 -7
-6 -7 -2 -9 -10 -12 -8 -6
-6 -7 -2 -9 -10 -10 -8 -6
-6 -6 -2 -8 -9 -8 -7 -6
-6 -6 -2 -8 -9 -7 -7 -6
-6 -6 -2 -8 -9 -5 -7 -6
-5 -5 -3 -7 -8 -4 -6 -6
-6 -5 -4 -7 -9 -5 -7 -7
-7 -6 -4 -8 -9 -6 -7 -8
-8 -6 -5 -8 -10 -7 -8 -9
-9 -6 -5 -8 -10 -8 -8 -10
-10 -7 -6 -9 -11 -9 -9 -11
-10 -7 -6 -9 -11 -9 -9 -11
-10 -7 -6 -9 -11 -9 -9 -10
-10 -7 -6 -9 -11 -9 -9 -10
-10 -7 -6 -9 -11 -9 -9 -10
-9 -6 -6 -9 -10 -10 -10 -9
-9 -7 -6 -9 -10 -10 -10 -9
-10 -7 -6 -8 -10 -10 -10 -9
-10 -8 -6 -8 -10 -10 -10 -9
-10 -8 -6 -8 -10 -10 -10 -9
-11 -9 -3 -2 -5 -8 -9 -10
-11 -9 1 5 1 -6 -9 -11
-10 -9 3 11 6 -4 -10 -11
-10 -9 6 17 11 0 -10 -12
-10 -9 9 23 16 2 -10 -12
-2 0 15 51 51 29 8 -3
7 9 22 82 92 62 31 10
15 19 29 114 132 95 55 22
24 28 36 146 173 127 77 34
32 37 43 178 214 159 101 47
46 52 47 190 233 181 121 63
60 67 49 197 248 199 141 78
74 82 52 205 265 219 161 95
89 98 54 214 280 237 182 111
103 113 57 221 296 256 201 128
93 100 26 143 214 199 168 112
76 79 -13 46 111 126 120 89
59 58 -52 -52 9 51 74 65
43 37 -92 -149 -95 -23 27 42
25 17 -131 -246 -197 -97 -20 18
15 8 -138 -265 -222 -118 -36 9
6 1 -137 -267 -229 -130 -46 3
-3 -6 -136 -269 -237 -140 -56 -4
-12 -13 -135 -270 -245 -151 -66 -10
-21 -19 -134 -272 -253 -162 -76 -16
-21 -19 -119 -240 -225 -147 -70 -16
-17 -15 -102 -200 -189 -126 -60 -13
-14 -12 -86 -159 -153 -104 -50 -11
-11 -9 -68 -119 -116 -82 -39 -8
-7 -5 -52 -79 -80 -60 -29 -5
-6 -5 -43 -63 -66 -51 -26 -5
-7 -7 -36 -53 -58 -45 -24 -6
-7 -9 -29 -43 -49 -37 -22 -7
-8 -10 -23 -32 -40 -31 -20 -9
-8 -12 -17 -22 -31 -25 -18 -10
-9 -13 -14 -19 -28 -23 -17 -11
-10 -11 -13 -18 -26 -22 -17 -11
-10 -10 -12 -16 -24 -21 -17 -12
-11 -9 -10 -14 -23 -20 -17 -12
-11 -8 -9 -13 -21 -20 -17 -12
-12 -7 -8 -12 -20 -19 -18 -13
-12 -8 -8 -12 -19 -18 -18 -13
-12 -9 -8 -12 -18 -17 -18 -13
-12 -10 -8 -12 -17 -16 -18 -13
-12 -10 -8 -12 -17 -15 -18 -13
-11 -11 -8 -12 -16 -14 -17 -12
-11 -11 -7 -11 -16 -15 -17 -12
-11 -11 -7 -10 -16 -15 -17 -12
-11 -11 -6 -9 -16 -16 -17 -12
-11 -11 -6 -9 -16 -16 -17 -12
-12 -12 -5 -8 -15 -17 -16 -13
-12 -12 -5 -8 -14 -16 -16 -13
-12 -12 -5 -7 -13 -15 -15 -13
-12 -12 -5 -7 -12 -14 -15 -13
-12 -12 -5 -7 -12 -14 -15 -13
-12 -12 -5 -6 -11 -13 -14 -12
-12 -12 -5 -6 -11 -13 -14 -12
-13 -12 -5 -7 -12 -13 -14 -12
-13 -12 -5 -7 -12 -13 -14 -12
-13 -12 -5 -7 -12 -13 -14 -12
-14 -11 -5 -8 -13 -13 -15 -13
-13 -11 -5 -7 -12 -12 -15 -13
-13 -11 -5 -7 -11 -12 -15 -13
-12 -11 -5 -6 -10 -11 -15 -13
-12 -11 -5 -6 -10 -11 -15 -13
-11 -10 -4 -5 -9 -10 -14 -13
-11 -10 -4 -5 -9 -10 -13 -12
-11 -10 -3 -5 -8 -10 -13 -11
-11 -10 -3 -5 -8 -10 -12 -10
-11 -10 -3 -5 -8 -10 -12 -10
-10 -11 -2 -4 -7 -11 -11 -9
-10 -10 -2 -3 -7 -10 -11 -9
-10 -10 -2 -2 -6 -9 -11 -8
-10 -9 -2 0 -6 -8 -11 -8
-10 -9 -2 0 -6 -8 -11 -8
-9 -8 -3 1 -5 -7 -11 -7
-9 -8 -3 1 -5 -7 -11 -8
-9 -8 -2 1 -5 -7 -11 -9
-9 -8 -2 1 -5 -7 -11 -10
-9 -8 -2 1 -5 -7 -11 -10
-9 -7 0 2 -4 -7 -12 -11
-9 -7 0 3 -3 -6 -12 -9
-9 -7 1 5 0 -5 -11 -8
-9 -7 1 7 2 -4 -11 -7
-9 -7 1 8 3 -4 -11 -6
-9 -8 2 9 4 -3 -10 -5
-9 -8 3 10 5 -2 -9 -5
-8 -7 4 11 5 -2 -9 -5
-8 -7 5 12 6 0 -8 -5
-8 -7 5 13 6 0 -8 -5
-7 -6 6 15 8 1 -6 -5
-6 -5 7 16 10 2 -5 -3
-6 -5 7 18 12 3 -4 -2
-5 -4 8 20 14 4 -2 0
-5 -4 8 21 16 5 0 1
-4 -3 9 23 18 6 1 2
-4 -2 9 24 19 8 2 2
-4 -2 10 26 20 9 2 2
-4 0 10 28 22 10 3 2
-4 0 10 29 23 11 3 2
-3 2 11 31 25 13 5 4
0 3 11 32 26 14 6 5
1 5 11 34 28 16 7 7
2 7 11 36 30 18 9 9
3 8 11 37 31 19 10 10
4 9 12 38 32 20 11 11
5 10 12 39 34 21 13 12
5 11 13 40 35 22 14 13
6 12 13 42 36 23 15 14
6 12 13 43 37 24 16 15
7 13 14 44 38 25 17 16
7 15 14 45 39 26 18 17
8 16 15 46 40 26 18 18
8 17 15 47 42 27 19 18
8 18 15 48 43 27 19 19
9 19 16 49 44 28 20 20
10 19 15 47 43 28 20 20
11 19 15 46 43 28 20 20
11 19 14 45 42 28 20 20
12 19 14 44 42 28 20 20
13 19 13 43 40 28 20 19
13 20 13 43 40 28 20 19
13 20 13 43 40 28 20 20
13 21 13 43 40 28 20 20
13 21 13 43 40 28 20 20
12 22 13 44 38 27 21 21
12 21 13 43 37 27 20 20
11 20 13 42 36 26 19 19
11 20 13 40 34 26 18 19
11 19 13 39 33 26 17 18
9 17 13 37 31 24 16 17
8 15 13 35 30 22 15 16
7 14 13 33 28 21 14 15
5 12 13 31 27 19 13 15
4 10 13 29 25 17 12 14
3 8 13 26 22 15 10 12
2 7 11 23 20 13 7 10
1 6 10 20 17 11 5 8
0 4 9 17 14 9 3 6
-2 3 8 14 11 7 0 4
-3 1 7 12 9 5 -2 3
-4 0 7 10 7 4 -4 2
-5 -2 6 9 6 3 -5 1
-5 -4 6 7 4 1 -6 0
-6 -5 6 5 2 0 -7 -2
-7 -6 5 4 1 -2 -8 -3
-7 -6 5 3 0 -4 -8 -3
-8 -7 4 2 -2 -5 -9 -3
-8 -7 4 2 -3 -6 -9 -3
-8 -7 4 1 -4 -7 -9 -3
-9 -8 3 0 -5 -8 -10 -4
-9 -8 3 0 -5 -8 -10 -4
-10 -9 3 -2 -5 -8 -10 -5
-10 -9 3 -2 -5 -8 -10 -5
-10 -9 3 -2 -5 -8 -10 -5
-11 -10 2 -3 -6 -9 -11 -6
-11 -10 2 -3 -6 -9 -11 -6
-11 -10 2 -3 -6 -9 -12 -6
-11 -10 2 -3 -6 -9 -12 -6
-11 -10 2 -3 -6 -9 -12 -6
-10 -10 3 -4 -6 -8 -13 -7
-10 -10 3 -4 -6 -8 -13 -7
-10 -10 2 -4 -6 -9 -14 -7
-10 -10 2 -4 -6 -9 -14 -7
-10 -10 2 -4 -6 -9 -14 -7
-11 -11 1 -5 -7 -10 -15 -7
-11 -11 1 -5 -7 -10 -15 -7
-11 -11 2 -5 -7 -10 -15 -7
-11 -11 2 -5 -7 -10 -15 -7
-11 -11 2 -5 -7 -10 -15 -7
-10 -11 3 -4 -7 -9 -14 -6
-10 -11 3 -4 -7 -9 -14 -6
-10 -10 3 -4 -7 -9 -14 -6
-10 -10 3 -4 -7 -9 -14 -6
-10 -10 3 -4 -7 -9 -14 -6
-11 -9 2 -4 -8 -9 -15 -7
-11 -10 2 -4 -8 -9 -15 -7
-11 -10 2 -4 -8 -9 -15 -7
-11 -11 2 -4 -8 -9 -15 -7
-11 -11 2 -4 -8 -9 -15 -7
-11 -12 2 -5 -8 -8 -15 -7
-11 -12 2 -5 -8 -8 -15 -7
-10 -11 2 -5 -8 -9 -15 -7
-10 -11 2 -5 -8 -9 -15 -7
-10 -11 2 -5 -8 -9 -15 -7
-9 -10 1 -6 -8 -10 -15 -7
-9 -10 1 -6 -8 -10 -15 -7
-9 -10 1 -6 -8 -10 -15 -7
-9 -10 1 -6 -8 -10 -15 -7
-9 -10 1 -6 -8 -10 -15 -7
-10 -11 1 -7 -8 -10 -16 -7
-10 -11 1 -7 -9 -10 -16 -7
-10 -11 0 -7 -9 -10 -16 -7
-10 -11 0 -7 -10 -10 -16 -7
-10 -11 0 -7 -10 -10 -16 -7
-11 -11 -2 -7 -11 -11 -16 -8
-11 -11 -2 -7 -11 -11 -16 -8
-10 -11 -2 -7 -11 -11 -16 -8
-10 -11 -2 -7 -11 -11 -16 -8
-10 -11 -2 -7 -11 -11 -16 -8
-9 -10 0 -8 -10 -11 -16 -7
-9 -10 0 -8 -11 -12 -16 -7
-9 -10 0 -9 -11 -12 -16 -7
-9 -10 0 -9 -12 -13 -16 -7
-9 -10 0 -9 -12 -13 -16 -7
-8 -9 -2 -10 -13 -14 -17 -8
-8 -9 -2 -10 -13 -14 -17 -8
-8 -9 -2 -10 -13 -13 -17 -8
-8 -9 -2 -10 -13 -13 -17 -8
-8 -9 -2 -10 -13 -13 -17 -8
-9 -10 -3 -10 -12 -12 -17 -8
-9 -10 -3 -10 -12 -12 -17 -8
-10 -10 -2 -10 -12 -12 -17 -8
-10 -10 -2 -10 -12 -12 -17 -8
-10 -10 -2 -10 -12 -12 -17 -8
-11 -11 0 -10 -12 -13 -17 -8
-11 -11 0 -10 -12 -12 -17 -8
-11 -11 0 -10 -12 -12 -17 -8
-11 -11 0 -10 -12 -11 -17 -8
-11 -11 0 -10 -12 -11 -17 -8
-10 -10 0 -10 -13 -10 -17 -9
-10 -10 0 -10 -13 -10 -17 -9
-10 -11 0 -10 -13 -11 -17 -9
-10 -11 0 -10 -13 -11 -17 -9
-10 -11 0 -10 -13 -11 -17 -9
-11 -12 -2 -10 -13 -12 -17 -8
-11 -12 -2 -10 -13 -12 -17 -8
-10 -12 -2 -10 -13 -12 -17 -8
-10 -12 -2 -10 -13 -12 -17 -8
-10 -12 -2 -10 -13 -12 -17 -8
-9 -11 -2 -11 -12 -12 -17 -9
-9 -11 -2 -11 -12 -12 -17 -9
-9 -11 -2 -11 -12 -12 -17 -9
-9 -11 -2 -11 -12 -12 -17 -9
-9 -11 -2 -11 -12 -12 -17 -9
-9 -10 -2 -11 -13 -13 -18 -9
-9 -11 -2 -11 -13 -13 -18 -9
-10 -12 -2 -11 -13 -13 -18 -9
-10 -12 -2 -11 -13 -13 -18 -9
-10 -13 -2 -11 -13 -13 -18 -9
-11 -14 -2 -11 -13 -12 -17 -9
-10 -13 -2 -11 -13 -12 -17 -9
-9 -12 -2 -11 -13 -12 -17 -9
-9 -11 -2 -11 -13 -12 -17 -9
-8 -10 -2 -11 -13 -12 -17 -9
-7 -9 -3 -11 -13 -12 -16 -9
-7 -9 -3 -11 -13 -12 -16 -9
-7 -9 -3 -12 -14 -13 -17 -10
-7 -9 -3 -12 -14 -14 -18 -10
-7 -9 -3 -12 -14 -14 -18 -10
-7 -10 -4 -13 -15 -15 -19 -11
-7 -10 -3 -13 -15 -15 -19 -11
-8 -10 -2 -12 -14 -15 -18 -10
-8 -10 -2 -11 -13 -15 -17 -10
-8 -10 0 -11 -13 -15 -17 -10
-9 -11 1 -10 -12 -14 -16 -9
-9 -11 1 -10 -12 -14 -16 -9
-9 -11 0 -11 -13 -14 -17 -10
-9 -11 -2 -11 -14 -14 -17 -10
-9 -11 -2 -11 -14 -14 -17 -10
-10 -12 -3 -12 -15 -14 -18 -11
-10 -12 -3 -12 -15 -14 -18 -11
-10 -11 -3 -12 -15 -14 -18 -11
-10 -10 -3 -12 -15 -14 -18 -11
-10 -10 -3 -12 -15 -14 -18 -11
-9 -9 -3 -12 -14 -13 -18 -11
-9 -9 -3 -12 -14 -13 -18 -11
-9 -9 -3 -12 -14 -13 -18 -11
-9 -9 -3 -12 -14 -13 -18 -11
-9 -9 -3 -12 -14 -13 -18 -11
-9 -10 -3 -13 -13 -12 -17 -11
-9 -10 -3 -13 -13 -12 -17 -11
-9 -10 -2 -12 -13 -12 -16 -11
-9 -10 -2 -11 -13 -12 -16 -11
-9 -10 -2 -11 -13 -12 -16 -11
-8 -11 0 -10 -12 -12 -15 -10
-8 -11 0 -10 -12 -12 -15 -10
-8 -10 -2 -11 -12 -12 -15 -10
-8 -9 -2 -11 -12 -12 -15 -10
-8 -9 -2 -11 -12 -12 -15 -10
-8 -8 -3 -12 -13 -13 -16 -11
-8 -8 -3 -12 -13 -13 -16 -11
-8 -8 -3 -12 -13 -13 -16 -11
-8 -8 -3 -12 -13 -13 -16 -11
-8 -8 -3 -12 -13 -13 -16 -11
-8 -9 -2 -11 -13 -12 -15 -11
-8 -9 -2 -11 -13 -12 -15 -11
-7 -8 -2 -10 -12 -12 -14 -10
-6 -8 -2 -10 -12 -12 -14 -10
-6 -8 -2 -10 -12 -12 -14 -10
-5 -7 0 -9 -11 -11 -13 -9
-5 -7 0 -9 -11 -11 -13 -9
-6 -8 0 -10 -12 -11 -14 -10
-6 -8 0 -10 -12 -11 -14 -10
-6 -8 0 -10 -12 -11 -14 -10
-7 -9 0 -11 -13 -12 -15 -11
-7 -9 0 -11 -13 -12 -15 -11
-7 -9 0 -11 -13 -12 -15 -11
-7 -9 0 -11 -13 -12 -15 -11
-7 -9 0 -11 -13 -12 -15 -11
-8 -9 -2 -12 -14 -12 -16 -11
-8 -9 -2 -12 -14 -12 -16 -11
-7 -9 -2 -12 -13 -11 -16 -11
-7 -9 -2 -12 -13 -11 -16 -11
-7 -9 -2 -12 -13 -11 -16 -11
-6 -8 -2 -11 -12 -10 -15 -10
-6 -8 -2 -11 -12 -10 -15 -10
-7 -8 -2 -11 -13 -10 -15 -10
-7 -8 -2 -11 -13 -10 -15 -10
-7 -8 -2 -11 -13 -10 -15 -10
-8 -8 0 -11 -14 -11 -15 -11
-8 -8 0 -11 -14 -11 -15 -11
-7 -8 0 -11 -13 -11 -14 -11
-7 -8 0 -11 -13 -11 -14 -11
-7 -8 0 -11 -13 -11 -14 -11
-6 -7 0 -10 -12 -10 -13 -10
-6 -7 0 -10 -12 -10 -13 -10
-6 -7 0 -11 -12 -10 -13 -10
-6 -7 0 -11 -12 -10 -13 -10
-6 -7 0 -11 -12 -10 -13 -10
-7 -8 -2 -12 -13 -11 -13 -11
-7 -8 -2 -12 -13 -11 -13 -11
-7 -8 -2 -11 -13 -11 -13 -11
-7 -8 -2 -11 -13 -11 -13 -11
-7 -8 -2 -11 -13 -11 -13 -11
-7 -7 0 -10 -13 -11 -14 -11
-6 -6 1 -9 -12 -10 -13 -11
-5 -5 2 -8 -11 -9 -12 -11
-5 -5 2 -8 -10 -9 -12 -11
-4 -4 3 -7 -9 -8 -11 -11
-3 -3 4 -6 -8 -7 -10 -10
-2 -3 4 -5 -8 -6 -10 -10
0 -3 5 -4 -7 -5 -10 -10
1 -3 5 -3 -6 -5 -10 -10
2 -3 5 -2 -6 -4 -10 -10
3 -4 6 0 -5 -3 -9 -9
3 -3 6 0 -5 -3 -8 -9
2 -2 7 1 -4 -2 -7 -8
2 -2 8 2 -3 0 -7 -7
2 0 8 2 -3 0 -6 -7
1 1 9 3 -2 1 -5 -6
3 1 7 2 -2 1 -5 -6
4 2 5 1 -2 1 -5 -5
5 3 4 1 -2 1 -5 -4
7 3 2 0 -2 1 -5 -4
8 4 1 -2 -2 1 -4 -3
8 3 0 -2 -2 1 -4 -3
8 2 -2 -3 -3 0 -4 -3
8 2 -2 -4 -4 -2 -4 -3
8 1 -3 -4 -4 -2 -4 -3
8 0 -4 -5 -5 -3 -3 -2
8 0 -4 -5 -5 -3 -3 -2
8 0 -4 -6 -6 -4 -4 -2
8 0 -4 -7 -7 -5 -4 -2
8 0 -4 -7 -7 -5 -4 -2
8 0 -5 -8 -8 -6 -5 -3
8 0 -5 -8 -8 -6 -5 -3
8 -2 -5 -8 -8 -6 -5 -3
8 -3 -5 -8 -8 -6 -5 -3
8 -3 -5 -8 -8 -6 -5 -3
9 -4 -5 -9 -8 -6 -6 -3
8 -4 -5 -9 -8 -6 -6 -3
7 -4 -4 -8 -8 -6 -6 -4
7 -4 -3 -8 -8 -6 -6 -5
6 -4 -3 -8 -8 -6 -6 -5
5 -4 -2 -7 -9 -6 -7 -6
3 -4 -2 -7 -9 -6 -8 -7
2 -5 0 -7 -9 -7 -9 -8
1 -5 1 -7 -9 -7 -9 -9
-2 -5 1 -7 -9 -7 -10 -10
-3 -6 2 -8 -10 -8 -11 -11
-4 -6 2 -8 -11 -8 -11 -11
-5 -7 2 -9 -12 -9 -12 -11
-6 -7 2 -9 -12 -9 -12 -11
-7 -7 2 -9 -13 -9 -12 -11
-8 -8 2 -10 -14 -10 -13 -12
-8 -8 2 -10 -14 -10 -13 -12
-8 -8 2 -10 -14 -10 -13 -12
-8 -8 2 -10 -14 -10 -13 -12
-8 -8 2 -10 -14 -10 -13 -12
-7 -7 3 -10 -13 -10 -12 -11
-7 -7 3 -10 -12 -10 -12 -11
-7 -6 3 -10 -11 -9 -11 -11
-7 -6 3 -10 -11 -9 -10 -11
-7 -6 3 -10 -10 -9 -10 -11
-8 -5 3 -8 -9 -8 -9 -11
-8 -5 5 -6 -7 -7 -9 -12
-8 -6 7 -3 -5 -6 -10 -13
-8 -6 8 1 -4 -6 -10 -13
-8 -6 10 3 -2 -5 -10 -14
-6 -5 13 16 14 9 -3 -11
0 0 18 37 43 32 13 -3
6 5 24 59 71 56 29 7
12 9 29 80 100 79 46 15
18 13 34 102 128 103 61 24
28 23 42 127 163 133 84 37
43 39 49 154 205 168 112 55
56 55 57 181 246 203 141 72
70 70 65 207 288 238 170 90
85 86 73 235 330 274 198 107
90 90 63 213 310 262 195 109
86 80 35 143 229 202 161 96
80 71 9 74 148 143 128 81
75 63 -19 5 67 85 94 67
71 54 -47 -65 -13 25 60 53
60 43 -74 -120 -75 -20 31 39
44 28 -100 -162 -119 -54 7 27
27 15 -126 -205 -163 -87 -19 14
11 1 -151 -247 -207 -120 -44 2
-6 -13 -177 -289 -252 -154 -69 -11
-14 -20 -180 -294 -260 -163 -79 -18
-14 -20 -160 -259 -231 -150 -73 -18
-14 -20 -140 -224 -203 -136 -67 -18
-14 -20 -119 -189 -176 -121 -61 -18
-14 -20 -99 -154 -148 -107 -55 -18
-13 -19 -81 -127 -124 -94 -49 -17
-11 -16 -68 -105 -105 -79 -43 -15
-10 -13 -54 -82 -87 -66 -35 -13
-9 -11 -39 -61 -67 -53 -29 -11
-7 -8 -25 -39 -49 -38 -23 -9
-6 -6 -17 -26 -36 -30 -19 -8
-6 -6 -13 -22 -32 -27 -19 -9
-7 -7 -9 -17 -28 -24 -18 -10
-7 -7 -6 -13 -24 -22 -17 -10
-7 -7 -2 -9 -20 -19 -17 -11
-8 -8 1 -6 -17 -17 -16 -12
-8 -8 1 -6 -17 -17 -16 -12
-8 -8 1 -6 -16 -17 -16 -12
-8 -8 1 -6 -15 -16 -16 -13
-8 -8 1 -6 -15 -16 -16 -13
-9 -9 2 -5 -14 -15 -15 -14
-9 -9 3 -5 -13 -14 -15 -14
-9 -8 3 -5 -12 -14 -14 -14
-9 -7 4 -5 -11 -13 -13 -14
-9 -7 5 -5 -10 -12 -13 -14
-9 -6 6 -4 -9 -11 -12 -13
-9 -6 6 -4 -9 -11 -12 -13
-9 -7 6 -4 -9 -11 -12 -13
-9 -8 6 -3 -9 -11 -13 -12
-9 -8 6 -3 -9 -11 -13 -12
-9 -9 6 -2 -9 -12 -14 -11
-9 -9 6 -2 -9 -12 -14 -11
-9 -9 6 -2 -9 -12 -14 -11
-9 -8 6 -2 -9 -12 -13 -11
-9 -8 6 -2 -9 -12 -13 -11
-9 -7 7 -3 -8 -11 -12 -12
-9 -7 7 -3 -8 -11 -12 -12
-9 -7 7 -2 -8 -11 -12 -12
-9 -7 7 0 -8 -11 -12 -11
-9 -7 7 0 -8 -11 -12 -11
-8 -7 7 1 -7 -10 -12 -10
-8 -7 7 1 -7 -10 -12 -10
-8 -7 7 1 -7 -10 -12 -10
-8 -7 7 0 -8 -10 -12 -10
-8 -7 7 0 -8 -10 -12 -10
-9 -6 7 -2 -9 -9 -13 -10
-9 -6 7 -2 -9 -9 -13 -10
-8 -6 7 -2 -8 -9 -13 -10
-7 -5 7 0 -7 -9 -13 -10
-7 -5 7 0 -7 -9 -13 -10
-6 -4 8 1 -6 -9 -12 -9
-6 -4 8 1 -6 -9 -12 -9
-6 -4 8 1 -6 -9 -12 -9
-6 -4 8 1 -6 -9 -12 -9
-6 -4 8 1 -6 -9 -12 -9
-6 -4 9 2 -5 -8 -11 -8
-6 -4 9 2 -5 -8 -11 -8
-6 -4 9 2 -5 -8 -11 -8
-6 -4 9 2 -5 -8 -11 -8
-6 -4 9 2 -5 -8 -11 -8
-7 -5 8 2 -4 -8 -10 -8
-7 -5 8 2 -4 -8 -10 -7
-7 -5 8 2 -4 -7 -9 -7
-7 -4 9 3 -3 -6 -8 -6
-7 -4 9 3 -3 -6 -8 -5
-6 -3 10 4 -2 -5 -7 -4
-6 -2 10 5 0 -5 -7 -3
-5 0 10 6 1 -4 -7 -3
-4 1 10 7 2 -3 -6 -2
-4 2 10 8 3 -3 -6 0
-3 3 10 9 4 -2 -5 1
-3 3 10 9 4 -2 -5 1
-3 3 10 9 4 -2 -5 1
-3 2 10 9 4 -2 -4 1
-3 2 10 9 4 -2 -4 1
-2 1 9 8 4 -2 -3 1
-2 1 9 9 4 -2 -3 2
-2 2 9 9 5 0 -2 2
-2 3 10 10 6 1 0 3
-2 3 10 11 6 1 0 4
0 4 11 12 7 2 1 5
0 5 11 12 8 3 2 6
1 6 11 13 8 4 3 6
2 8 11 14 9 6 4 7
2 9 11 14 10 7 5 8
3 10 12 15 11 8 6 9
4 11 12 16 12 8 7 9
5 12 12 16 12 8 7 10
7 14 12 17 13 9 8 11
8 15 12 18 14 9 9 11
9 16 12 19 15 10 10 12
9 16 13 19 15 11 11 13
9 17 13 19 15 12 12 14
9 18 14 20 15 14 14 15
9 18 15 20 15 15 15 16
9 19 16 21 16 16 16 17
10 21 16 21 17 16 17 18
10 22 16 21 18 16 18 19
11 24 16 22 19 17 20 21
12 26 16 22 20 17 21 22
13 27 16 23 21 18 22 23
14 28 16 23 21 19 23 24
15 29 16 23 21 20 24 25
17 30 16 23 22 22 25 26
18 31 16 23 22 23 26 27
19 32 17 24 23 24 27 28
19 32 17 24 23 24 27 28
19 32 17 24 23 25 27 29
19 33 17 24 23 26 28 30
19 33 17 24 23 26 28 30
20 34 17 23 23 27 29 31
20 34 17 23 23 28 30 31
20 34 17 23 24 29 31 31
20 35 17 23 25 30 33 32
20 35 17 23 25 31 34 32
21 36 16 24 26 32 35 33
21 36 16 24 27 32 35 33
22 36 16 25 28 33 35 33
23 36 16 26 30 34 35 33
23 36 16 26 31 34 35 33
24 37 16 27 32 35 35 32
22 34 16 27 32 35 34 31
20 32 16 27 32 35 34 29
18 30 16 28 32 35 33 28
16 28 16 28 32 35 32 26
14 26 16 29 33 35 31 25
14 25 16 28 33 33 29 23
14 24 16 28 32 31 27 22
13 23 15 27 31 29 25 20
13 22 15 26 31 27 23 18
12 21 14 25 30 25 21 17
11 20 14 25 28 24 19 16
11 19 14 24 27 23 17 14
10 17 13 23 25 21 15 13
9 16 13 23 23 20 14 11
8 15 12 22 22 19 12 10
8 14 12 21 21 18 11 10
7 13 12 21 21 17 11 10
6 12 11 20 20 16 10 9
6 11 11 19 19 15 9 9
5 10 10 18 18 14 8 8
4 9 10 17 17 13 8 7
4 9 9 16 17 12 7 7
3 8 8 14 16 10 6 6
2 7 8 13 15 9 6 5
1 6 7 12 14 8 5 4
1 6 7 12 14 8 5 4
1 6 7 12 14 8 5 4
1 5 7 12 13 8 4 4
1 5 7 12 13 8 4 4
1 4 7 11 12 7 3 3
1 4 7 11 12 7 3 3
1 4 7 11 12 7 2 3
1 4 7 11 11 6 1 3
1 4 7 11 11 6 1 3
2 3 6 10 10 5 0 3
1 3 6 10 10 5 0 3
1 2 6 10 10 5 0 3
0 1 6 9 9 4 0 2
-2 1 6 9 9 4 0 2
-3 0 5 8 8 3 1 1
-3 0 5 8 8 3 1 1
-3 0 5 8 8 3 0 1
-3 0 5 8 7 3 -2 1
-3 0 5 8 7 3 -2 1
-3 1 5 7 6 2 -3 1
-3 1 5 7 6 2 -3 1
-3 1 5 7 6 2 -3 1
-2 1 5 7 6 1 -3 1
-2 1 5 7 6 1 -3 1
0 1 6 6 7 0 -4 0
0 1 6 6 7 0 -4 0
0 0 6 6 7 0 -4 0
-2 -2 6 6 6 0 -4 0
-2 -2 6 6 6 0 -4 0
-3 -3 7 6 5 0 -5 -2
-3 -3 7 6 5 0 -5 -2
-3 -3 6 5 5 -2 -5 -2
-4 -3 5 4 5 -3 -5 -3
-4 -3 5 4 5 -3 -5 -3
-5 -3 4 3 4 -4 -6 -4
-5 -3 4 3 4 -4 -6 -4
-5 -3 4 3 4 -4 -6 -4
-5 -3 4 3 4 -3 -6 -3
-5 -3 4 3 4 -3 -6 -3
-4 -2 5 4 4 -2 -6 -2
-4 -3 5 4 4 -2 -6 -2
-4 -3 5 4 4 -2 -6 -2
-4 -4 4 4 4 -3 -6 -3
-4 -5 4 4 4 -3 -6 -3
-5 -6 3 3 3 -4 -7 -4
-5 -6 3 3 3 -4 -7 -4
-5 -6 3 3 3 -4 -7 -4
-5 -6 3 3 3 -4 -7 -4
-5 -6 3 3 3 -4 -7 -4
-4 -5 4 3 2 -3 -6 -4
-4 -5 4 3 2 -3 -6 -4
-4 -5 4 3 2 -3 -6 -4
-5 -5 3 2 1 -4 -6 -4
-5 -5 3 2 1 -4 -6 -4
-6 -6 2 1 0 -5 -7 -5
-6 -6 2 1 0 -5 -7 -5
-6 -6 2 1 0 -5 -7 -5
-6 -6 2 0 0 -5 -7 -5
-6 -6 2 0 0 -5 -7 -5
-6 -6 3 -2 -2 -5 -7 -4
-6 -6 3 -2 -2 -5 -7 -4
-6 -6 3 -2 -2 -5 -7 -4
-6 -6 3 -2 -2 -5 -8 -4
-6 -6 3 -2 -2 -5 -8 -4
-5 -6 2 -3 -2 -6 -9 -4
-5 -6 2 -3 -2 -6 -9 -4
-4 -6 2 -3 -2 -6 -9 -4
-3 -5 3 -3 -2 -5 -9 -4
-3 -5 3 -3 -2 -5 -9 -4
-2 -4 4 -2 -2 -4 -8 -4
-2 -4 4 -2 -2 -4 -8 -4
-2 -3 4 -2 0 -4 -8 -4
-2 -2 4 0 1 -3 -8 -4
-2 -2 4 0 1 -3 -8 -4
-2 0 5 1 2 -2 -7 -3
-2 0 6 1 2 0 -7 -3
0 0 6 2 2 0 -6 -3
1 0 7 3 2 1 -5 -3
1 0 8 3 2 2 -5 -3
2 1 9 4 3 3 -4 -3
2 1 9 4 3 3 -4 -3
2 1 9 5 3 3 -4 -3
2 2 9 5 4 3 -3 -3
2 2 9 6 4 3 -3 -3
2 3 9 7 5 3 -2 -3
3 3 7 6 5 3 -2 -2
4 3 4 5 5 3 -2 0
5 2 2 4 5 3 0 1
7 2 0 2 5 3 0 3
8 1 -3 1 6 3 1 4
8 1 -4 0 5 3 1 4
8 1 -4 -2 3 2 1 4
9 1 -5 -3 2 2 0 3
9 1 -6 -5 0 1 0 3
10 0 -7 -6 -2 0 -2 2
10 0 -7 -6 -2 -2 -2 2
9 -2 -7 -6 -2 -2 -2 2
9 -2 -7 -6 -3 -3 -2 2
8 -3 -7 -6 -3 -4 -2 2
7 -4 -6 -6 -4 -5 0 2
7 -4 -6 -6 -4 -5 -2 2
7 -4 -6 -6 -4 -6 -3 1
6 -5 -6 -6 -4 -6 -4 1
6 -5 -6 -6 -4 -7 -6 0
5 -6 -6 -6 -5 -8 -7 -2
3 -6 -6 -6 -5 -8 -7 -2
2 -7 -5 -6 -5 -8 -7 -3
0 -7 -5 -6 -5 -8 -7 -3
-2 -8 -4 -6 -5 -8 -7 -4
-4 -9 -3 -7 -6 -8 -8 -5
-5 -9 -3 -7 -6 -8 -8 -5
-6 -9 -2 -7 -6 -8 -8 -6
-7 -9 -2 -7 -7 -8 -9 -6
-8 -9 0 -7 -7 -8 -9 -7
-9 -10 1 -7 -8 -9 -10 -8
-9 -10 1 -7 -9 -9 -10 -8
-10 -11 1 -7 -10 -9 -11 -9
-10 -11 0 -8 -11 -9 -11 -9
-11 -12 0 -8 -12 -9 -12 -10
-12 -13 -2 -9 -13 -9 -13 -11
-12 -12 -2 -9 -13 -9 -13 -11
-11 -11 -2 -9 -13 -9 -13 -10
-11 -10 -2 -9 -13 -9 -13 -10
-10 -9 -2 -9 -13 -9 -13 -9
-9 -8 -2 -9 -12 -9 -12 -8
-9 -9 -2 -8 -11 -9 -12 -8
-9 -10 -2 -8 -10 -9 -12 -8
-10 -11 0 -7 -9 -9 -11 -7
-10 -12 0 -6 -8 -9 -11 -7
-11 -13 1 -5 -7 -10 -10 -6
-11 -13 3 -2 -5 -9 -10 -6
-11 -14 5 2 -4 -8 -10 -6
-11 -14 7 5 -2 -7 -10 -6
-11 -15 9 8 0 -5 -10 -6
-11 -15 12 15 10 3 -5 -5
-5 -8 16 36 38 26 12 3
1 0 21 58 67 50 27 11
7 6 26 79 95 72 44 18
12 13 30 101 123 96 59 26
21 21 36 123 156 122 78 36
36 34 44 149 197 157 106 53
52 49 51 176 239 192 134 69
67 62 58 202 280 226 161 87
82 75 65 228 321 261 189 103
93 84 63 227 328 269 200 111
88 72 33 153 243 207 163 97
81 62 4 79 157 145 128 82
76 52 -26 7 71 82 92 67
70 42 -56 -67 -14 20 56 53
62 30 -85 -132 -87 -32 24 39
47 19 -108 -170 -127 -62 3 28
31 8 -133 -207 -165 -92 -19 17
16 -4 -156 -245 -205 -120 -40 6
1 -15 -180 -283 -244 -150 -61 -6
-12 -23 -192 -302 -266 -168 -75 -14
-12 -23 -169 -263 -234 -149 -67 -11
-12 -23 -145 -223 -201 -132 -59 -9
-12 -22 -121 -184 -170 -114 -51 -6
-12 -22 -98 -145 -137 -96 -41 -3
-11 -21 -77 -111 -109 -80 -34 0
-10 -18 -65 -92 -93 -69 -30 0
-9 -16 -53 -72 -75 -58 -26 0
-8 -14 -40 -54 -59 -47 -21 0
-6 -11 -27 -34 -43 -35 -17 0
-5 -9 -18 -20 -29 -26 -13 0
-6 -9 -14 -16 -25 -23 -13 -2
-7 -10 -11 -12 -21 -20 -13 -3
-8 -10 -8 -9 -18 -17 -12 -4
-9 -11 -5 -5 -14 -14 -12 -6
-10 -12 -2 -2 -11 -11 -11 -7
-10 -12 -2 -2 -10 -11 -11 -7
-10 -12 -2 0 -10 -11 -11 -7
-10 -12 0 0 -9 -12 -11 -7
-10 -12 0 1 -8 -12 -11 -7
-9 -12 1 2 -7 -13 -11 -7
-9 -12 1 2 -7 -12 -11 -7
-9 -12 1 2 -7 -11 -11 -7
-9 -12 2 2 -7 -10 -10 -7
-9 -12 2 2 -7 -8 -10 -7
-9 -11 3 2 -7 -7 -9 -7
-9 -11 3 3 -6 -7 -9 -7
-9 -11 3 3 -6 -7 -9 -7
-9 -11 4 4 -5 -7 -8 -6
-9 -11 4 5 -4 -7 -8 -6
-9 -12 5 6 -3 -7 -7 -5
-9 -12 5 6 -3 -7 -7 -5
-9 -12 5 6 -3 -7 -7 -5
-9 -11 5 5 -3 -7 -7 -5
-9 -11 5 5 -3 -7 -7 -5
-8 -10 5 4 -3 -7 -6 -5
-8 -10 5 4 -3 -7 -6 -5
-8 -10 5 4 -2 -7 -6 -5
-8 -10 5 5 -2 -6 -6 -5
-8 -10 5 5 0 -6 -6 -5
-8 -10 6 6 1 -5 -6 -5
-8 -10 6 6 1 -5 -6 -5
-8 -10 6 6 1 -5 -6 -5
-7 -9 6 6 1 -4 -6 -4
-7 -9 6 6 1 -4 -6 -4
-6 -8 6 7 2 -3 -5 -3
-6 -8 6 7 2 -3 -5 -3
-6 -8 6 7 2 -3 -5 -3
-6 -8 6 7 2 -3 -5 -4
-6 -8 6 7 2 -3 -5 -4
-7 -8 5 7 3 -4 -5 -5
-7 -8 5 7 3 -4 -5 -5
-7 -8 5 7 4 -4 -4 -4
-7 -8 6 8 4 -3 -4 -3
-7 -8 6 8 5 -3 -3 -2
-6 -9 7 9 6 -2 -2 0
-6 -9 7 9 6 -2 -2 0
-6 -9 7 9 6 -2 -2 0
-5 -9 7 10 6 -2 -2 0
-5 -9 7 10 6 -2 -2 0
-4 -8 7 11 7 0 -2 0
-4 -8 7 11 7 0 -2 0
-4 -8 7 11 7 0 -2 0
-5 -8 8 12 7 0 -2 0
-5 -8 8 12 7 0 -2 0
-6 -7 9 13 7 0 0 0
-5 -7 9 13 8 1 1 0
-4 -7 9 14 10 2 2 1
-3 -7 9 14 12 3 3 1
0 -7 9 15 13 5 4 2
1 -6 10 16 15 6 5 3
1 -6 10 16 15 6 5 3
1 -6 10 17 15 7 5 4
1 -5 11 17 15 7 6 4
1 -5 11 18 15 8 6 5
1 -4 12 19 16 9 7 6
1 -3 12 20 17 9 8 6
1 -2 12 21 18 10 9 7
1 0 12 22 19 10 10 7
1 2 12 24 20 11 11 8
1 3 11 25 21 12 12 9
2 4 11 25 21 12 12 10
3 5 11 26 22 13 12 11
4 6 12 26 23 14 13 12
6 8 12 27 24 15 13 14
7 9 13 28 25 16 14 15
7 9 13 29 26 17 15 16
7 9 13 31 27 18 17 17
7 9 14 32 28 19 18 18
7 9 14 33 29 20 19 19
8 10 15 35 30 21 21 20
8 11 15 35 30 21 21 20
9 12 16 35 30 21 21 20
9 13 16 35 30 21 22 20
10 15 17 35 30 21 22 20
11 16 18 36 31 21 23 21
11 17 18 36 31 21 23 21
11 18 18 35 30 21 23 22
11 19 18 35 29 22 24 22
11 20 18 34 28 22 24 23
12 21 17 33 27 23 25 24
12 21 17 32 26 22 25 24
12 21 17 31 25 21 25 24
12 21 17 30 24 20 25 24
12 21 17 28 22 19 25 24
12 21 18 27 21 18 26 25
12 21 18 25 20 18 26 25
12 21 17 23 18 18 25 25
12 22 17 21 16 17 25 24
12 22 16 19 15 17 24 24
12 23 15 17 13 16 23 23
12 23 15 17 13 15 23 23
12 22 15 17 13 14 23 23
12 22 15 17 13 13 22 23
12 21 15 17 13 12 22 23
13 20 15 16 14 11 21 24
13 20 14 16 14 11 21 24
12 19 13 15 14 11 21 23
11 18 12 15 14 11 20 23
10 17 11 14 14 11 20 22
9 16 10 13 13 12 19 21
9 14 10 13 13 12 18 19
9 12 10 12 12 12 16 16
8 10 10 12 12 11 15 14
8 8 10 11 11 11 14 11
7 6 10 10 10 10 12 9
6 5 10 10 10 9 11 9
4 4 9 9 10 8 10 9
3 3 8 9 9 7 9 8
2 1 7 8 9 6 8 8
0 0 6 7 8 5 7 7
0 0 6 6 7 4 6 6
0 0 6 5 5 3 5 5
0 -2 5 4 4 2 4 4
0 -2 5 3 3 1 3 3
-2 -3 4 2 1 -2 1 1
-2 -4 4 2 1 -2 1 1
-2 -5 4 2 1 -2 1 1
-2 -6 4 1 1 -2 1 1
-2 -7 4 1 1 -2 1 1
-3 -8 3 0 1 -2 2 2
-3 -8 3 0 1 -2 2 2
-3 -8 3 0 1 -2 2 2
-3 -8 3 0 1 -2 1 1
-3 -8 3 0 1 -2 1 1
-3 -7 2 -2 0 -2 0 0
-3 -7 2 -2 0 -2 0 0
-3 -7 2 0 0 -2 0 0
-3 -6 2 1 1 -3 0 0
-3 -6 2 2 1 -3 0 0
-3 -5 3 3 2 -4 -2 -2
-3 -5 3 3 2 -4 -2 -2
-3 -5 3 3 2 -4 -2 -2
-2 -4 3 3 2 -4 0 0
-2 -4 3 3 2 -4 0 0
0 -3 4 3 2 -3 1 1
0 -3 4 3 2 -3 1 1
0 -3 4 3 2 -3 1 1
-2 -3 4 2 2 -3 1 1
-2 -3 4 2 2 -3 1 1
-3 -3 3 1 1 -2 1 0
-3 -3 3 1 1 -2 1 0
-3 -3 3 2 1 -2 1 0
-3 -3 3 2 1 -2 0 -2
-3 -3 3 3 1 -2 0 -2
-4 -3 4 4 1 -3 -2 -3
-4 -3 4 4 1 -3 -2 -3
-4 -3 4 4 1 -3 -2 -3
-4 -3 4 4 2 -3 -2 -3
-4 -3 4 4 2 -3 -2 -3
-4 -4 4 4 3 -2 -2 -3
-4 -4 4 4 3 -2 -2 -3
-4 -4 4 4 3 -2 -2 -3
-4 -4 4 4 3 -2 -2 -4
-4 -4 4 4 3 -2 -2 -4
-5 -5 4 3 2 -2 -2 -5
-5 -5 4 3 2 -2 -2 -5
-5 -5 4 3 2 -2 -2 -5
-4 -5 4 3 2 -2 -3 -5
-4 -5 4 3 2 -2 -3 -5
-3 -5 4 2 1 -3 -4 -6
-3 -5 4 2 1 -3 -4 -6
-3 -5 4 2 1 -3 -4 -6
-3 -5 4 2 1 -3 -3 -5
-3 -5 4 2 1 -3 -3 -5
-3 -6 4 2 2 -3 -2 -4
-3 -6 4 2 2 -3 -2 -4
-3 -6 4 2 2 -3 -2 -4
-3 -6 4 1 2 -3 -2 -4
-3 -6 4 1 2 -3 -2 -4
-3 -6 3 0 1 -4 -2 -5
-3 -6 3 0 1 -4 -2 -5
-3 -6 3 0 1 -4 -2 -5
-3 -6 3 0 1 -4 -2 -4
-3 -6 3 0 1 -4 -2 -4
-4 -7 3 0 0 -4 -3 -3
-4 -7 3 0 0 -4 -3 -3
-4 -7 3 0 -2 -4 -3 -3
-4 -7 2 -2 -2 -4 -3 -4
-4 -7 2 -2 -3 -4 -3 -4
-4 -6 1 -3 -4 -4 -3 -5
-4 -6 1 -3 -4 -4 -3 -5
-4 -6 1 -3 -4 -4 -3 -5
-4 -6 1 -3 -4 -4 -4 -6
-4 -6 1 -3 -4 -4 -4 -6
-4 -6 2 -4 -5 -4 -5 -7
-4 -6 2 -4 -5 -4 -5 -7
-4 -6 2 -4 -5 -5 -5 -7
-4 -6 2 -4 -5 -5 -5 -7
-4 -6 2 -4 -5 -6 -5 -7
-3 -5 2 -5 -5 -7 -6 -7
-3 -5 2 -5 -5 -7 -6 -7
-3 -4 2 -5 -5 -6 -6 -7
-3 -4 2 -5 -5 -6 -6 -7
-3 -3 2 -5 -5 -5 -6 -7
-2 -2 2 -4 -5 -4 -6 -8
-2 -2 2 -4 -5 -4 -6 -8
0 -2 3 -3 -4 -4 -6 -8
0 -2 3 -3 -4 -4 -6 -7
1 -2 4 -2 -3 -4 -6 -7
2 0 5 0 -2 -3 -5 -6
2 0 6 1 0 -2 -5 -6
2 1 7 2 1 0 -4 -6
2 2 8 3 2 1 -3 -6
2 3 9 4 3 2 -2 -6
2 4 10 5 4 3 0 -5
2 4 10 5 4 3 0 -4
3 4 9 5 4 3 0 -3
4 4 8 5 4 3 0 -2
5 4 7 5 4 3 0 0
6 4 6 6 4 3 0 1
6 3 4 5 4 3 0 1
7 2 1 3 4 3 0 1
8 1 -2 2 3 3 0 1
9 0 -4 0 3 3 0 1
10 -2 -7 -3 2 2 1 1
10 -2 -7 -3 2 2 1 1
10 -2 -7 -4 1 1 1 1
10 -2 -7 -4 0 0 1 1
10 -2 -7 -5 -2 -2 1 1
10 -2 -7 -6 -3 -3 0 2
10 -2 -7 -6 -3 -3 0 2
10 -2 -7 -6 -3 -3 0 2
11 -2 -7 -7 -4 -3 0 1
11 -2 -7 -7 -4 -3 0 1
12 0 -7 -8 -5 -2 -2 0
11 -2 -7 -8 -5 -2 -2 0
10 -3 -7 -8 -6 -3 -3 0
9 -5 -7 -8 -6 -3 -3 0
8 -6 -7 -8 -7 -4 -4 0
6 -8 -7 -9 -8 -5 -5 -2
5 -8 -7 -9 -8 -5 -5 -2
3 -7 -7 -9 -8 -5 -5 -3
2 -7 -6 -9 -8 -5 -5 -3
0 -6 -6 -9 -8 -5 -5 -4
-3 -5 -5 -8 -8 -5 -6 -5
-3 -5 -5 -8 -8 -6 -7 -5
-4 -6 -4 -8 -8 -7 -8 -6
-5 -6 -4 -8 -8 -8 -10 -6
-6 -7 -3 -8 -8 -9 -11 -7
-7 -8 -2 -7 -9 -10 -13 -8
-7 -8 -2 -7 -9 -10 -13 -8
-7 -8 -2 -8 -9 -10 -13 -8
-7 -8 -2 -8 -10 -10 -13 -9
-7 -8 -2 -9 -10 -10 -13 -9
-6 -9 -3 -10 -11 -11 -13 -10
-6 -9 -3 -10 -11 -11 -13 -10
-6 -9 -3 -10 -11 -10 -13 -10
-6 -9 -3 -10 -10 -10 -13 -10
-6 -9 -3 -10 -10 -9 -13 -10
-7 -10 -2 -10 -9 -8 -12 -9
-7 -10 -2 -10 -9 -8 -12 -9
-7 -9 -2 -10 -9 -8 -12 -9
-6 -9 0 -9 -9 -8 -12 -9
-6 -8 0 -9 -9 -8 -12 -9
-5 -7 1 -8 -8 -9 -12 -9
-5 -7 3 -2 -2 -5 -11 -9
-5 -7 6 6 5 0 -10 -9
-6 -8 9 12 11 4 -9 -9
-6 -8 12 18 17 8 -8 -9
-7 -9 15 26 24 13 -5 -10
3 1 21 54 63 47 19 3
11 10 27 82 102 79 43 15
20 18 33 111 141 113 66 28
28 27 39 139 180 146 90 40
37 36 46 167 218 179 112 53
51 49 47 172 232 195 132 69
64 61 48 177 245 212 150 85
77 72 49 182 260 228 170 100
91 85 50 188 273 243 189 116
104 97 50 190 284 258 206 132
87 81 16 107 189 184 158 108
70 66 -19 23 94 111 111 85
53 52 -53 -60 -3 38 63 62
35 36 -87 -144 -98 -35 15 38
19 21 -120 -225 -190 -106 -31 16
12 14 -132 -238 -203 -117 -40 11
6 6 -143 -252 -217 -129 -51 5
-2 -2 -154 -264 -231 -140 -61 0
-9 -9 -166 -277 -244 -152 -70 -7
-16 -17 -178 -289 -257 -163 -80 -13
-14 -17 -154 -249 -223 -145 -72 -13
-12 -16 -131 -210 -189 -126 -64 -12
-10 -15 -107 -169 -155 -107 -56 -12
-8 -14 -83 -129 -121 -88 -48 -11
-6 -13 -60 -89 -88 -69 -39 -10
-6 -12 -50 -74 -74 -60 -36 -10
-5 -11 -40 -59 -61 -50 -32 -9
-5 -9 -30 -44 -48 -40 -28 -9
-4 -8 -20 -29 -34 -31 -24 -8
-3 -6 -10 -14 -21 -21 -20 -7
-3 -6 -9 -13 -20 -20 -20 -8
-4 -7 -7 -11 -18 -19 -20 -9
-5 -8 -5 -9 -17 -17 -21 -10
-6 -9 -3 -7 -15 -16 -21 -11
-7 -10 0 -5 -13 -14 -22 -13
-7 -10 0 -5 -12 -14 -22 -13
-7 -10 0 -4 -11 -13 -21 -13
-7 -10 0 -4 -10 -13 -21 -13
-7 -10 0 -3 -9 -12 -20 -13
-6 -10 1 -2 -8 -11 -19 -12
-6 -10 1 -2 -8 -11 -19 -12
-6 -10 1 -2 -8 -11 -19 -12
-6 -10 1 -2 -7 -11 -19 -12
-6 -10 1 -2 -7 -11 -19 -12
-7 -11 2 -3 -6 -10 -19 -12
-7 -11 2 -3 -6 -10 -19 -12
-7 -11 3 -2 -5 -9 -18 -12
-7 -10 3 -2 -5 -9 -18 -11
-7 -10 4 0 -4 -8 -17 -11
-6 -9 5 1 -3 -7 -16 -10
-6 -9 5 1 -3 -7 -16 -10
-6 -9 5 1 -3 -7 -16 -10
-6 -9 5 1 -3 -7 -16 -10
-6 -9 5 1 -3 -7 -16 -10
-7 -9 6 0 -3 -8 -16 -11
-7 -9 6 0 -3 -8 -16 -11
-7 -9 6 0 -3 -8 -16 -11
-6 -8 6 1 -3 -7 -16 -10
-6 -8 6 1 -3 -7 -16 -10
-5 -7 6 2 -2 -6 -16 -9
