I II V1 V2 V3 V4 V5 V6
-10 -15 -3 -9 0 -11 -22 -14
-10 -15 -3 -9 0 -11 -22 -14
-10 -15 -3 -8 1 -11 -22 -14
-10 -15 -3 -8 1 -10 -22 -13
-10 -15 -3 -7 2 -10 -22 -13
-10 -15 -3 -7 2 -10 -22 -13
-9 -14 -2 -6 3 -9 -22 -12
-9 -14 -2 -6 3 -9 -22 -12
-8 -13 -2 -6 3 -10 -22 -12
-8 -13 -2 -6 3 -10 -22 -12
-8 -13 -2 -6 3 -10 -22 -12
-7 -12 -3 -7 2 -11 -23 -13
-7 -11 -3 -6 3 -11 -23 -13
-7 -11 -3 -5 3 -11 -23 -12
-7 -10 -3 -4 4 -11 -23 -12
-7 -10 -3 -3 4 -11 -23 -12
-6 -9 -3 -2 5 -10 -22 -11
-6 -9 -3 0 5 -10 -22 -11
-6 -9 -3 0 5 -10 -22 -11
-6 -9 -3 1 5 -10 -22 -11
-6 -9 -3 1 5 -10 -22 -11
-6 -10 -4 2 6 -10 -23 -11
-5 -10 -4 2 6 -10 -23 -11
-4 -9 -4 3 6 -10 -23 -11
-3 -9 -4 3 6 -10 -23 -11
-2 -9 -4 3 6 -10 -23 -11
0 -8 -5 4 7 -10 -22 -11
0 -7 -6 4 7 -10 -22 -10
1 -7 -6 4 8 -10 -21 -10
1 -6 -7 4 8 -10 -21 -9
1 -6 -7 4 8 -10 -21 -9
2 -5 -8 5 9 -11 -20 -8
2 -5 -8 6 10 -10 -19 -7
2 -5 -9 6 11 -9 -18 -7
2 -5 -9 7 12 -8 -17 -6
2 -5 -9 7 12 -8 -17 -6
3 -5 -11 8 13 -7 -16 -5
5 -4 -12 8 14 -6 -15 -4
6 -3 -13 8 15 -6 -14 -4
8 -2 -14 8 16 -5 -13 -3
9 0 -15 8 17 -5 -13 -3
11 1 -17 8 19 -2 -11 -2
13 2 -19 7 21 2 -10 0
15 3 -20 6 23 5 -8 0
17 4 -22 5 25 8 -7 1
19 4 -23 5 27 10 -6 1
21 5 -25 4 28 11 -5 3
23 5 -27 3 29 11 -4 4
25 5 -29 2 30 11 -3 5
27 5 -31 1 31 11 -2 6
28 5 -32 0 32 11 0 7
29 7 -34 -2 33 12 1 8
29 8 -35 -3 33 12 2 9
30 10 -37 -3 33 12 3 10
30 11 -38 -4 33 12 4 11
30 12 -39 -4 33 12 4 12
31 13 -40 -6 34 13 5 13
31 13 -41 -8 33 12 5 13
32 12 -41 -9 33 11 5 13
32 12 -43 -11 32 10 5 13
32 12 -43 -12 32 10 5 13
33 11 -44 -13 31 8 6 13
32 11 -44 -14 30 7 6 13
31 11 -44 -15 29 6 6 13
30 11 -44 -16 28 5 6 13
29 11 -44 -17 27 4 6 13
28 11 -41 -18 26 3 6 13
28 11 -40 -18 25 2 6 12
27 11 -38 -18 24 1 5 12
27 11 -37 -18 23 0 5 11
27 11 -36 -18 23 -2 5 11
25 12 -34 -19 22 -4 4 10
23 11 -32 -18 22 -6 3 10
21 10 -30 -17 21 -8 2 9
19 9 -28 -16 21 -10 1 9
17 9 -26 -16 21 -11 0 9
14 8 -23 -14 20 -13 -2 7
12 7 -20 -12 19 -14 -3 5
9 6 -18 -11 18 -16 -4 3
7 5 -15 -9 17 -17 -5 1
5 4 -13 -8 17 -18 -6 0
4 3 -11 -7 16 -19 -7 -2
4 2 -10 -6 15 -20 -8 -3
3 2 -8 -6 14 -21 -9 -4
3 1 -7 -5 13 -22 -10 -5
3 1 -6 -5 13 -23 -10 -5
2 0 -5 -3 12 -24 -11 -6
1 -2 -4 -2 12 -25 -11 -7
1 -3 -3 0 12 -25 -11 -7
0 -4 -2 1 12 -26 -11 -8
0 -5 0 2 12 -26 -11 -8
-2 -6 1 3 11 -27 -12 -9
-3 -6 1 3 11 -28 -12 -9
-4 -6 1 3 11 -28 -13 -10
-5 -6 1 3 11 -29 -13 -10
-5 -6 1 3 11 -29 -13 -10
-6 -7 0 2 10 -30 -14 -11
-7 -7 0 2 10 -31 -14 -11
-8 -7 0 2 10 -31 -14 -11
-9 -7 0 2 10 -32 -14 -11
-9 -7 0 2 10 -32 -14 -11
-10 -8 1 3 10 -33 -13 -11
-9 -8 1 3 10 -33 -13 -11
-9 -7 2 3 10 -33 -13 -11
-8 -7 2 3 10 -33 -13 -11
-8 -7 2 3 10 -33 -13 -11
-7 -6 3 3 10 -34 -13 -10
-7 -6 3 3 10 -33 -13 -10
-7 -6 3 3 11 -33 -13 -10
-7 -6 3 3 11 -32 -13 -10
-7 -6 3 3 11 -32 -13 -10
-6 -7 3 2 12 -31 -13 -11
-6 -6 3 2 13 -31 -13 -11
-7 -5 3 3 13 -30 -13 -11
-7 -4 3 3 14 -30 -13 -11
-7 -4 3 3 14 -30 -13 -11
-8 -3 3 4 16 -26 -12 -11
-8 -3 3 4 18 -22 -12 -11
-7 -3 3 5 20 -18 -12 -11
-7 -3 3 5 22 -15 -12 -11
-7 -3 3 5 24 -11 -12 -11
-6 -4 3 6 25 -10 -11 -10
-6 -3 3 6 26 -10 -10 -9
-6 -3 4 6 27 -9 -9 -9
-6 -2 4 6 28 -9 -8 -8
-6 -2 4 6 28 -9 -8 -8
-6 0 5 6 29 -8 -7 -7
-6 0 5 6 29 -8 -7 -7
-6 0 5 7 30 -8 -8 -7
-6 0 5 7 30 -8 -8 -7
-6 0 5 7 30 -8 -8 -7
-6 -2 5 8 31 -9 -9 -7
-6 0 5 8 32 -9 -9 -7
-6 0 5 8 33 -9 -9 -7
-6 1 5 8 34 -9 -9 -7
-6 1 5 8 34 -9 -9 -7
-6 2 6 9 35 -9 -8 -7
-5 3 7 10 35 -9 -8 -7
-5 4 8 10 36 -9 -7 -6
-4 5 9 11 36 -9 -7 -6
-4 5 9 11 36 -9 -7 -6
-3 6 10 12 37 -10 -6 -5
-3 6 11 12 38 -10 -6 -5
-3 7 11 12 38 -10 -6 -4
-3 7 12 12 39 -10 -6 -4
-3 7 12 12 39 -10 -6 -4
-4 9 13 12 40 -11 -5 -3
-4 10 14 12 39 -11 -5 -3
-4 12 14 12 39 -12 -5 -2
-4 13 15 12 38 -12 -5 -2
-4 14 15 12 38 -12 -5 -2
-4 15 16 12 37 -13 -6 0
-4 15 16 13 37 -12 -5 1
-4 15 16 13 37 -12 -4 1
-4 15 16 14 37 -11 -3 2
-4 15 16 14 37 -11 -3 2
-3 16 17 15 38 -10 -2 3
-3 16 17 14 37 -10 -2 3
-3 17 16 14 36 -10 -2 3
-3 17 16 13 35 -10 -2 3
-3 17 16 13 34 -10 -2 3
-3 19 15 12 33 -11 -2 4
-2 20 14 12 32 -11 -2 4
-2 22 13 12 31 -11 -2 4
0 23 12 12 30 -11 -2 4
0 24 12 12 30 -11 -2 4
1 24 11 11 28 -10 0 4
2 22 11 10 27 -10 0 4
2 20 11 10 25 -10 0 4
3 19 11 9 24 -10 0 4
3 17 11 9 23 -10 0 4
4 14 9 7 20 -9 -2 2
4 12 8 6 17 -9 -3 1
3 9 7 4 14 -9 -4 0
3 6 6 3 12 -9 -5 -2
3 4 5 2 9 -9 -6 -3
1 3 4 1 6 -9 -7 -4
0 2 4 0 4 -9 -8 -5
-3 2 3 0 2 -9 -9 -6
-4 1 3 -2 -2 -9 -10 -7
-5 1 3 -2 -4 -9 -10 -7
-6 -2 2 -3 -5 -10 -11 -8
-6 -3 2 -4 -6 -10 -11 -8
-7 -4 2 -4 -7 -11 -11 -9
-7 -6 2 -5 -8 -11 -11 -9
-7 -7 2 -5 -9 -11 -11 -9
-8 -8 3 -6 -10 -12 -12 -10
-8 -9 3 -6 -11 -12 -12 -10
-8 -10 3 -6 -11 -12 -12 -11
-8 -11 3 -6 -12 -12 -12 -11
-8 -12 3 -6 -12 -12 -12 -11
-9 -13 2 -7 -13 -12 -11 -12
-9 -13 2 -7 -13 -12 -11 -12
-9 -12 2 -7 -13 -12 -10 -12
-9 -12 2 -7 -13 -12 -10 -12
-9 -12 2 -7 -13 -12 -10 -12
-9 -11 1 -7 -13 -12 -9 -11
-9 -11 1 -7 -13 -12 -9 -11
-9 -11 1 -7 -13 -12 -9 -11
-9 -11 1 -7 -13 -12 -9 -11
-9 -11 1 -7 -13 -12 -9 -11
-8 -12 0 -7 -14 -12 -8 -11
-9 -12 0 -7 -14 -13 -8 -11
-9 -12 0 -7 -14 -13 -8 -11
-10 -12 0 -7 -14 -14 -8 -11
-10 -12 0 -7 -14 -14 -8 -11
-11 -13 0 -6 -15 -15 -9 -12
-11 -13 0 -6 -15 -15 -9 -12
-10 -14 0 -6 -15 -15 -9 -12
-10 -14 0 -6 -15 -15 -9 -12
-10 -14 0 -6 -15 -15 -9 -12
-7 -15 3 0 -13 -13 -7 -13
-3 -15 9 9 -9 -10 -6 -13
1 -15 15 17 -5 -6 -5 -14
5 -15 21 26 0 -3 -3 -14
8 -15 27 34 4 1 -2 -14
15 -5 33 52 19 15 10 -8
24 8 39 70 37 32 23 1
32 21 47 90 56 49 36 10
42 33 53 109 74 66 49 18
50 46 59 128 92 84 62 27
53 65 61 137 111 103 80 44
56 86 62 144 130 122 99 61
58 105 62 150 149 143 117 78
61 126 63 157 169 162 137 96
63 146 63 163 187 183 155 113
50 139 56 133 163 162 144 109
31 126 45 93 130 132 125 100
13 111 34 53 97 100 106 90
-6 98 23 13 63 69 87 79
-24 84 12 -27 29 38 67 69
-35 65 2 -55 0 11 46 53
-46 45 -9 -78 -27 -17 23 35
-55 24 -19 -102 -55 -45 2 17
-64 5 -29 -127 -82 -72 -21 -2
-74 -16 -39 -150 -110 -99 -43 -19
-70 -23 -43 -147 -111 -100 -48 -25
-61 -27 -45 -136 -104 -94 -46 -28
-53 -31 -47 -124 -97 -88 -45 -31
-45 -35 -49 -113 -90 -80 -44 -34
-35 -39 -51 -103 -82 -74 -43 -37
-31 -39 -47 -91 -74 -66 -38 -37
-28 -36 -40 -78 -66 -58 -33 -34
-26 -34 -34 -66 -59 -51 -29 -32
-23 -31 -28 -55 -51 -43 -24 -29
-20 -29 -22 -43 -43 -34 -19 -27
-19 -27 -18 -35 -37 -29 -17 -25
-18 -25 -14 -30 -33 -26 -14 -23
-17 -23 -11 -24 -29 -22 -12 -21
-16 -21 -8 -19 -25 -18 -9 -20
-16 -19 -4 -14 -21 -14 -7 -18
-15 -18 -3 -12 -20 -13 -6 -17
-14 -17 -2 -11 -19 -12 -5 -17
-14 -17 -2 -10 -18 -11 -5 -17
-13 -16 0 -9 -17 -10 -4 -17
-13 -16 0 -8 -17 -10 -4 -17
-12 -15 1 -7 -16 -9 -3 -16
-12 -15 1 -7 -16 -9 -3 -16
-12 -15 1 -7 -16 -9 -3 -16
-12 -15 1 -7 -16 -9 -3 -16
-12 -15 1 -7 -16 -9 -3 -16
-12 -16 1 -6 -15 -9 -3 -16
-12 -15 1 -6 -15 -9 -3 -16
-11 -15 1 -6 -15 -9 -3 -16
-11 -14 1 -6 -15 -9 -3 -16
-11 -14 1 -6 -15 -9 -3 -16
-10 -13 2 -6 -14 -9 -3 -17
-10 -13 3 -5 -13 -8 -2 -16
-10 -13 4 -4 -12 -7 0 -16
-10 -13 5 -3 -11 -6 1 -15
-10 -13 5 -3 -10 -5 2 -15
-9 -12 6 -2 -9 -4 3 -14
-9 -12 6 -2 -9 -4 3 -14
-8 -12 5 -2 -9 -4 3 -14
-8 -12 5 -2 -9 -4 3 -14
-8 -12 5 -2 -9 -4 3 -14
-7 -12 4 -3 -9 -5 2 -14
-7 -12 4 -3 -8 -5 2 -14
-7 -11 4 -3 -7 -5 2 -14
-7 -11 4 -3 -6 -5 2 -14
-7 -11 4 -3 -5 -5 2 -14
-6 -10 5 -2 -4 -4 3 -14
-5 -9 5 0 -3 -4 3 -14
-5 -9 5 0 -3 -4 3 -14
-4 -8 5 1 -2 -4 3 -14
-4 -8 5 1 -2 -4 3 -14
-3 -7 4 2 0 -3 3 -15
-2 -7 4 3 0 -2 4 -15
-2 -6 3 3 1 -2 4 -14
0 -6 3 4 1 0 5 -14
0 -6 3 4 1 0 5 -14
1 -5 2 5 2 1 6 -13
2 -5 2 5 4 2 6 -13
2 -5 1 5 5 2 7 -13
3 -5 1 5 6 3 7 -13
3 -5 1 5 7 3 7 -13
4 -4 0 5 8 4 8 -12
6 -3 0 6 9 5 9 -12
7 -2 0 6 10 6 10 -11
8 0 0 7 11 7 11 -11
9 0 0 7 12 7 11 -11
10 1 -2 8 13 8 12 -10
11 1 -4 8 14 8 12 -10
11 1 -5 8 15 8 13 -9
12 1 -6 8 16 8 13 -9
12 1 -7 8 16 8 13 -9
14 2 -8 7 18 10 14 -8
17 3 -10 7 19 11 15 -8
19 4 -11 6 21 13 16 -7
22 5 -12 6 23 15 17 -7
24 6 -13 6 24 16 18 -7
26 7 -15 5 25 17 19 -6
28 7 -17 3 26 18 20 -4
30 7 -20 2 27 19 21 -3
32 7 -22 1 28 19 21 -2
34 7 -24 0 29 20 22 0
35 7 -25 -2 30 21 24 1
35 8 -26 -4 30 22 25 3
35 9 -27 -5 31 23 26 4
35 10 -27 -6 31 23 28 5
35 11 -28 -7 31 24 29 6
36 12 -29 -9 32 25 30 7
37 13 -30 -10 31 24 29 7
37 14 -30 -12 31 23 28 7
38 14 -31 -13 30 22 28 7
38 15 -31 -15 30 21 27 7
39 16 -32 -17 29 20 26 7
39 16 -32 -18 28 20 26 7
38 16 -32 -19 27 19 25 7
38 16 -32 -21 27 19 25 7
38 16 -32 -22 26 19 25 7
37 15 -33 -23 25 18 24 8
36 15 -32 -23 24 17 23 8
35 15 -31 -24 23 16 23 7
34 15 -30 -24 23 15 22 7
33 15 -29 -24 22 14 22 7
31 15 -27 -25 21 13 21 6
29 14 -24 -24 20 12 19 5
26 13 -21 -23 19 11 18 4
24 13 -19 -22 19 11 17 4
22 12 -16 -21 18 10 16 3
20 11 -14 -19 17 9 14 1
19 10 -12 -18 16 8 13 0
17 10 -10 -17 16 7 11 -2
16 9 -7 -15 15 6 10 -4
14 9 -5 -14 15 5 8 -5
12 8 -3 -13 14 4 7 -6
11 8 0 -11 14 4 6 -6
9 8 2 -10 14 3 5 -7
8 8 4 -9 14 3 4 -7
6 8 6 -8 14 3 3 -7
5 7 7 -7 13 2 2 -8
5 6 8 -6 12 0 1 -9
4 4 9 -5 12 -2 0 -10
4 3 10 -5 11 -3 0 -10
4 1 11 -4 11 -4 -2 -11
3 0 12 -3 10 -5 -3 -12
2 0 12 -2 11 -6 -4 -13
2 0 13 -2 11 -6 -5 -14
1 0 13 0 12 -7 -5 -14
1 0 13 0 12 -7 -6 -15
0 1 14 1 13 -8 -7 -16
0 1 14 1 13 -9 -7 -16
-2 1 14 1 13 -9 -8 -16
-2 1 14 1 13 -10 -8 -16
-2 1 14 1 13 -10 -8 -16
-3 0 14 1 13 -11 -9 -15
-3 0 14 1 13 -11 -9 -15
-3 0 14 1 13 -12 -9 -15
-3 0 14 1 13 -12 -9 -15
-3 0 14 1 13 -12 -9 -15
-4 0 14 1 14 -13 -9 -14
-5 0 14 1 15 -13 -9 -14
-5 -2 14 1 16 -13 -9 -14
-6 -2 14 1 17 -13 -9 -14
-6 -2 14 1 18 -13 -9 -14
-7 -3 14 2 19 -13 -8 -13
-7 -3 15 3 19 -13 -8 -13
-7 -3 16 3 20 -13 -8 -12
-7 -3 17 4 20 -13 -8 -12
-7 -3 18 4 20 -13 -8 -12
-6 -2 19 5 21 -12 -7 -11
-6 -2 19 5 22 -12 -7 -11
-6 0 19 6 23 -11 -7 -11
-6 0 19 6 24 -11 -7 -11
-6 0 19 6 25 -11 -7 -11
-6 1 17 7 26 -10 -6 -11
-6 2 16 7 26 -10 -6 -11
-5 3 14 7 26 -10 -6 -11
-5 3 13 7 26 -10 -6 -11
-5 4 11 7 26 -10 -6 -11
-4 5 10 7 25 -9 -5 -10
-4 4 10 8 26 -9 -5 -9
-5 3 10 8 26 -8 -5 -8
-5 2 10 9 27 -8 -5 -8
-5 1 10 9 27 -8 -5 -7
-6 0 11 10 28 -7 -4 -6
-5 1 11 10 28 -7 -4 -6
-5 2 11 9 28 -7 -4 -7
-4 2 11 9 28 -7 -4 -7
-4 3 11 9 28 -7 -4 -7
-3 4 10 8 27 -9 -4 -8
-3 6 11 9 27 -11 -2 -7
-3 7 12 10 27 -12 0 -6
-3 9 12 11 27 -14 1 -6
-3 10 13 12 27 -16 2 -5
-2 11 14 13 26 -17 3 -4
-2 11 14 13 25 -17 3 -3
-2 11 14 13 25 -17 3 -3
-2 11 14 13 24 -17 3 -2
-2 11 14 13 24 -17 3 -2
-3 11 15 13 23 -18 4 0
-3 11 15 13 23 -18 4 0
-2 12 15 13 24 -18 5 -2
-2 12 15 13 24 -18 5 -2
-2 12 15 13 24 -18 5 -2
0 14 16 14 25 -17 6 -3
0 15 17 14 25 -16 7 -3
0 17 19 15 26 -15 8 -3
0 18 20 15 27 -14 9 -3
0 20 21 15 27 -13 10 -3
1 21 22 16 28 -12 11 -2
1 21 21 16 28 -12 11 -2
0 21 19 15 27 -12 11 0
0 21 18 14 26 -12 11 1
0 21 17 14 26 -12 11 1
-2 21 16 13 25 -12 10 2
-2 21 16 13 25 -12 10 2
0 22 15 12 24 -12 10 2
1 22 14 12 23 -12 10 2
1 22 14 12 23 -12 10 2
2 23 13 11 22 -11 9 3
2 23 13 11 22 -11 9 3
2 23 13 10 21 -10 8 3
2 23 13 10 20 -9 8 3
2 23 13 10 20 -9 8 3
2 21 12 9 18 -8 7 3
2 18 11 7 16 -9 5 1
3 15 10 6 14 -11 4 0
3 12 9 4 12 -12 2 -3
3 9 8 3 10 -13 1 -4
4 7 7 2 9 -14 0 -5
2 6 7 2 7 -14 -2 -6
1 4 6 1 6 -14 -3 -7
-2 2 6 1 4 -14 -3 -7
-3 0 6 1 3 -14 -4 -8
-4 -2 5 0 1 -13 -5 -9
-5 -4 5 0 0 -13 -5 -9
-7 -5 5 -2 -3 -13 -6 -9
-8 -7 5 -3 -4 -13 -7 -9
-9 -8 5 -3 -6 -13 -7 -9
-10 -9 6 -4 -7 -13 -8 -10
-10 -9 5 -4 -7 -13 -8 -10
-10 -10 4 -5 -8 -12 -9 -10
-10 -10 4 -5 -9 -12 -10 -10
-10 -10 3 -5 -9 -12 -10 -10
-10 -11 2 -6 -10 -11 -11 -11
-10 -11 2 -6 -10 -11 -11 -11
-10 -12 2 -6 -11 -11 -11 -11
-10 -13 2 -6 -12 -11 -11 -11
-10 -13 2 -6 -12 -11 -11 -11
-10 -14 2 -5 -13 -10 -11 -11
-10 -14 1 -6 -15 -10 -12 -11
-10 -14 0 -7 -16 -10 -13 -12
-10 -14 0 -7 -18 -10 -13 -13
-10 -14 -2 -8 -19 -10 -14 -13
-9 -13 -3 -9 -20 -11 -15 -14
-9 -13 -3 -9 -20 -11 -15 -14
-9 -13 -3 -9 -20 -11 -14 -13
-9 -13 -3 -9 -20 -11 -13 -12
-9 -13 -3 -9 -20 -11 -13 -12
-9 -14 -3 -9 -21 -12 -12 -11
-9 -14 -3 -9 -23 -12 -12 -11
-9 -15 -4 -10 -24 -13 -13 -11
-9 -15 -5 -11 -26 -13 -13 -11
-9 -15 -5 -11 -27 -13 -13 -11
-8 -16 -4 -8 -27 -14 -14 -12
-5 -16 2 0 -25 -12 -14 -13
-2 -17 6 7 -23 -11 -14 -14
2 -17 10 15 -21 -9 -14 -15
5 -17 15 22 -19 -8 -14 -16
11 -12 21 36 -9 3 -7 -13
18 0 29 55 8 19 5 -5
26 11 36 74 24 34 16 4
33 22 45 93 40 51 28 12
42 33 53 111 57 66 39 19
46 50 56 125 76 86 56 33
50 68 58 134 98 108 76 52
53 88 60 144 119 130 96 69
56 106 61 153 141 151 116 87
59 125 63 162 161 173 136 105
54 129 58 146 156 169 136 110
40 119 48 112 132 146 122 105
27 111 36 77 107 125 109 101
14 103 26 43 82 102 96 97
1 95 16 9 58 79 82 92
-14 79 6 -25 25 48 60 77
-28 59 -5 -59 -14 11 33 56
-43 38 -15 -93 -52 -27 6 33
-57 18 -25 -127 -91 -65 -21 12
-71 -3 -35 -159 -129 -103 -49 -10
-72 -15 -41 -169 -142 -116 -60 -21
-64 -21 -47 -158 -136 -111 -60 -24
-55 -28 -51 -149 -129 -106 -60 -28
-47 -35 -56 -139 -122 -101 -60 -31
-37 -43 -61 -129 -116 -96 -60 -35
-32 -46 -60 -117 -109 -89 -59 -36
-29 -45 -54 -105 -100 -80 -54 -34
-26 -44 -48 -92 -92 -73 -50 -32
-23 -44 -43 -79 -82 -65 -46 -30
-21 -43 -36 -67 -74 -58 -40 -28
-19 -40 -31 -57 -68 -52 -36 -26
-17 -36 -27 -50 -64 -48 -33 -24
-15 -33 -22 -43 -59 -44 -30 -22
-14 -30 -18 -35 -55 -38 -26 -20
-12 -27 -13 -28 -50 -34 -23 -18
-11 -25 -11 -25 -48 -32 -21 -17
-11 -25 -11 -24 -47 -32 -21 -16
-10 -24 -11 -23 -46 -31 -21 -15
-10 -23 -11 -22 -46 -31 -21 -15
-10 -23 -11 -21 -45 -31 -21 -14
-9 -22 -10 -20 -44 -30 -20 -13
-9 -22 -9 -19 -43 -29 -19 -13
-9 -21 -8 -18 -40 -27 -18 -12
-9 -20 -8 -17 -39 -26 -17 -12
-9 -20 -7 -16 -38 -25 -16 -12
-8 -19 -6 -15 -37 -24 -15 -11
-8 -19 -6 -15 -37 -24 -15 -11
-8 -18 -6 -15 -37 -24 -15 -11
-8 -17 -6 -15 -37 -24 -15 -11
-8 -17 -6 -15 -37 -24 -15 -11
-8 -16 -6 -15 -36 -24 -15 -10
-8 -16 -6 -15 -36 -24 -15 -10
-8 -16 -6 -15 -35 -24 -15 -10
-8 -16 -6 -15 -35 -24 -15 -10
-8 -16 -6 -15 -35 -24 -15 -10
-7 -17 -5 -14 -34 -24 -16 -11
-7 -17 -5 -14 -34 -24 -16 -11
-6 -17 -5 -13 -34 -24 -15 -10
-5 -17 -5 -13 -34 -24 -15 -10
-5 -17 -5 -13 -34 -24 -15 -10
-4 -17 -6 -12 -33 -24 -14 -9
-4 -17 -6 -12 -33 -24 -14 -9
-4 -17 -6 -11 -32 -24 -14 -8
-4 -17 -6 -11 -31 -24 -14 -7
-4 -17 -6 -11 -31 -24 -14 -7
-5 -17 -5 -10 -30 -24 -13 -6
-5 -17 -5 -10 -30 -24 -12 -6
-4 -16 -5 -10 -29 -23 -11 -5
-3 -16 -5 -10 -28 -22 -11 -5
-3 -16 -5 -10 -28 -22 -10 -5
-2 -15 -5 -10 -27 -21 -9 -4
-2 -15 -5 -10 -27 -21 -9 -4
-2 -14 -5 -9 -26 -21 -8 -4
-2 -14 -5 -9 -25 -21 -7 -4
-2 -14 -5 -9 -25 -21 -7 -4
-3 -13 -6 -8 -24 -20 -6 -4
-3 -13 -8 -8 -24 -20 -6 -4
-2 -13 -9 -9 -24 -20 -6 -3
0 -13 -10 -9 -24 -20 -6 -2
0 -13 -12 -9 -24 -20 -6 -2
1 -12 -13 -10 -24 -20 -6 0
1 -12 -13 -10 -23 -20 -6 0
2 -12 -13 -10 -22 -19 -5 0
2 -12 -13 -10 -21 -18 -4 0
2 -12 -13 -10 -20 -18 -4 0
3 -12 -13 -9 -19 -17 -3 1
5 -12 -13 -9 -19 -17 -3 2
7 -12 -14 -9 -18 -16 -2 3
9 -12 -14 -9 -17 -15 0 4
11 -12 -14 -9 -17 -15 0 5
12 -11 -16 -8 -16 -14 1 6
13 -10 -18 -8 -14 -13 2 6
14 -9 -21 -8 -12 -11 3 7
14 -8 -23 -8 -11 -10 3 8
15 -7 -25 -8 -9 -9 4 8
16 -6 -28 -9 -8 -8 5 9
17 -6 -30 -10 -8 -8 6 9
19 -6 -32 -11 -7 -8 7 10
20 -6 -34 -11 -7 -8 8 11
21 -6 -36 -12 -7 -8 9 11
22 -7 -38 -13 -6 -8 10 12
24 -5 -40 -14 -6 -7 11 13
26 -4 -41 -15 -5 -6 13 15
28 -3 -43 -15 -5 -6 14 16
30 0 -45 -16 -5 -5 15 17
31 1 -46 -18 -4 -4 16 18
31 1 -47 -20 -4 -4 16 18
30 1 -48 -22 -4 -4 17 18
30 1 -48 -24 -4 -4 17 18
30 1 -49 -26 -4 -4 17 18
29 1 -50 -28 -4 -4 18 19
29 1 -50 -29 -5 -5 18 19
28 0 -50 -30 -7 -6 17 19
28 0 -50 -31 -8 -7 17 19
28 0 -50 -32 -9 -8 17 19
27 -2 -51 -33 -10 -9 16 19
27 0 -49 -33 -10 -10 16 19
26 1 -48 -34 -11 -11 16 19
26 2 -47 -35 -11 -11 16 19
26 3 -45 -35 -11 -12 16 19
24 4 -43 -36 -12 -13 15 20
22 3 -40 -34 -12 -13 15 19
19 2 -38 -33 -13 -13 14 17
17 1 -36 -32 -14 -13 13 16
15 0 -34 -30 -14 -13 13 15
13 -2 -31 -29 -15 -14 12 14
11 -2 -29 -28 -17 -16 10 13
10 -2 -27 -27 -19 -18 8 12
9 -2 -25 -27 -20 -19 6 11
7 -2 -23 -26 -22 -21 4 10
6 -3 -20 -25 -23 -22 3 9
5 -4 -18 -23 -23 -22 2 8
3 -6 -15 -21 -23 -23 1 6
2 -7 -12 -19 -23 -23 1 5
1 -8 -10 -17 -23 -23 0 4
0 -9 -8 -16 -24 -24 -2 3
-2 -9 -7 -16 -25 -25 -2 3
-3 -10 -5 -15 -26 -26 -3 2
-3 -10 -4 -15 -26 -26 -4 1
-4 -10 -3 -15 -27 -27 -4 1
-5 -11 -2 -14 -28 -28 -5 0
-6 -11 -2 -13 -28 -28 -5 -2
-7 -11 -2 -12 -28 -29 -6 -3
-7 -11 -2 -12 -28 -29 -7 -3
-8 -11 -2 -11 -28 -29 -7 -4
-9 -10 -2 -10 -28 -30 -8 -5
-9 -10 -2 -10 -28 -30 -8 -5
-9 -10 0 -10 -28 -30 -8 -5
-9 -10 1 -10 -28 -30 -8 -5
-9 -10 1 -10 -28 -30 -8 -5
-9 -11 2 -9 -28 -29 -7 -4
-9 -11 2 -9 -28 -29 -7 -4
-9 -11 2 -9 -28 -29 -7 -5
-9 -11 2 -9 -28 -29 -7 -6
-9 -11 2 -9 -28 -29 -7 -6
-10 -12 1 -8 -28 -28 -7 -7
-10 -12 1 -8 -28 -28 -7 -7
-10 -12 1 -8 -28 -28 -7 -7
-11 -12 1 -8 -28 -28 -8 -7
-11 -12 1 -8 -28 -28 -8 -7
-12 -12 1 -8 -29 -29 -9 -7
-12 -12 1 -8 -28 -28 -9 -7
-12 -11 2 -7 -28 -27 -8 -7
-11 -10 3 -6 -27 -26 -7 -6
-11 -10 3 -6 -26 -25 -7 -6
-10 -9 4 -5 -25 -24 -6 -5
-10 -9 4 -5 -25 -24 -6 -5
-10 -9 4 -5 -25 -24 -6 -5
-10 -9 4 -5 -25 -24 -6 -5
-10 -9 4 -5 -25 -24 -6 -5
-10 -8 4 -4 -25 -24 -6 -5
-10 -8 4 -3 -25 -24 -6 -5
-10 -7 5 -3 -24 -23 -6 -5
-10 -6 6 -2 -23 -22 -6 -5
-10 -6 6 0 -23 -22 -6 -5
-10 -5 7 1 -22 -21 -6 -4
-10 -5 7 1 -22 -21 -6 -4
-10 -5 7 2 -21 -21 -6 -4
-10 -5 7 3 -20 -20 -5 -4
-10 -5 7 3 -20 -20 -5 -4
-11 -5 7 4 -19 -19 -4 -3
-11 -4 7 4 -18 -19 -4 -3
-10 -3 7 4 -18 -18 -3 -3
-9 -2 7 4 -17 -17 -2 -3
-9 0 7 4 -16 -17 -2 -3
-8 1 8 5 -15 -16 0 -3
-8 2 9 7 -14 -16 0 -2
-8 2 10 8 -14 -15 0 0
-7 3 11 9 -13 -14 1 1
-7 4 12 11 -12 -14 1 2
-6 5 13 12 -11 -13 2 3
-6 6 13 12 -11 -13 2 3
-6 6 13 12 -11 -13 3 3
-6 7 14 12 -10 -12 4 3
-6 8 14 12 -10 -12 4 3
-7 9 15 13 -9 -11 5 4
-6 9 15 13 -9 -11 5 4
-6 10 16 13 -9 -11 5 4
-5 11 17 14 -8 -11 5 4
-4 11 17 14 -8 -11 5 4
-3 12 18 15 -7 -10 6 4
-3 14 18 15 -7 -10 6 4
-3 15 18 16 -7 -10 6 4
-3 16 18 17 -6 -9 7 5
-3 18 18 17 -6 -9 7 5
-4 19 19 18 -5 -8 8 6
-4 19 18 17 -5 -8 8 6
-4 19 18 17 -5 -8 8 6
-4 20 17 16 -6 -9 7 6
-4 20 16 15 -6 -9 7 6
-3 21 15 14 -7 -10 6 5
-3 21 15 14 -7 -10 6 5
-3 21 15 14 -7 -10 6 5
-3 21 15 14 -6 -9 7 5
-3 21 15 14 -6 -9 7 5
-3 22 16 14 -5 -8 8 6
-2 22 16 14 -5 -8 8 6
-2 22 15 13 -5 -8 8 6
0 22 14 12 -5 -8 8 7
1 22 14 12 -5 -8 8 7
2 20 13 11 -6 -8 8 8
2 17 12 10 -7 -8 6 6
2 14 11 10 -7 -8 5 5
1 11 10 9 -8 -9 4 4
1 7 9 8 -9 -9 2 2
0 5 8 7 -10 -10 1 1
-3 3 7 6 -10 -10 0 0
-4 2 7 5 -11 -10 -2 -2
-5 1 6 3 -12 -11 -4 -4
-7 -2 5 2 -12 -11 -5 -5
-8 -3 4 1 -13 -12 -6 -6
-8 -4 4 1 -13 -12 -6 -6
-8 -4 4 1 -13 -12 -6 -6
-8 -5 4 1 -12 -12 -6 -6
-8 -6 4 1 -12 -12 -6 -6
-9 -7 5 0 -11 -12 -7 -6
-9 -8 5 0 -11 -11 -8 -7
-9 -8 4 -2 -11 -11 -8 -7
-9 -9 3 -3 -10 -10 -9 -8
-9 -10 3 -3 -10 -9 -10 -9
-10 -11 2 -4 -9 -8 -11 -10
-10 -12 2 -4 -9 -8 -11 -10
-10 -13 2 -4 -9 -8 -11 -10
-11 -14 2 -4 -9 -8 -10 -10
-11 -15 2 -4 -9 -8 -10 -10
-12 -16 1 -5 -10 -7 -9 -10
-12 -16 1 -5 -10 -7 -9 -10
-12 -15 0 -5 -10 -8 -10 -10
-12 -14 -2 -5 -10 -9 -11 -10
-12 -14 -2 -5 -10 -9 -11 -10
-13 -13 -3 -6 -11 -10 -12 -11
-13 -13 -3 -6 -11 -10 -12 -11
-13 -13 -3 -6 -11 -10 -12 -11
-13 -14 -3 -6 -11 -10 -12 -11
-13 -14 -3 -6 -11 -10 -12 -11
-13 -15 -2 -7 -10 -10 -13 -10
-13 -15 -2 -7 -10 -10 -13 -10
-13 -15 -2 -7 -10 -10 -13 -10
-13 -15 -2 -7 -10 -10 -14 -11
-13 -15 -2 -7 -10 -10 -14 -11
-12 -15 -2 -5 -9 -11 -15 -12
-9 -15 3 2 -7 -9 -15 -12
-7 -15 8 8 -4 -8 -15 -12
-5 -16 12 15 -2 -6 -14 -13
-3 -16 16 21 2 -4 -14 -13
2 -13 22 32 10 3 -9 -12
8 -3 30 51 25 18 2 -5
15 8 38 70 40 32 13 3
21 18 47 89 57 47 24 10
28 28 56 107 72 62 34 16
33 43 61 122 91 79 49 27
38 62 62 133 112 101 67 44
44 82 62 142 133 122 87 61
49 102 63 151 154 144 105 77
54 121 64 161 176 165 123 95
54 132 60 155 184 174 132 104
43 125 47 122 169 160 121 102
30 117 33 90 154 147 111 99
19 110 20 58 140 134 100 96
7 103 7 25 125 120 90 93
-7 90 -6 -10 98 95 72 82
-22 68 -15 -47 51 49 44 61
-38 47 -24 -83 4 4 15 39
-54 25 -33 -120 -44 -43 -14 18
-70 3 -43 -157 -91 -88 -43 -4
-77 -13 -50 -177 -118 -114 -61 -18
-69 -20 -52 -164 -110 -108 -61 -20
-60 -26 -55 -152 -103 -102 -60 -23
-51 -33 -58 -141 -95 -96 -59 -26
-43 -39 -61 -129 -88 -89 -59 -29
-35 -45 -61 -115 -79 -81 -57 -31
-32 -43 -54 -102 -70 -72 -53 -30
-29 -40 -48 -89 -61 -64 -48 -28
-26 -38 -40 -74 -52 -55 -44 -27
-22 -36 -34 -61 -43 -46 -39 -25
-20 -34 -28 -50 -35 -38 -35 -24
-20 -31 -23 -43 -30 -34 -32 -21
-19 -29 -18 -35 -26 -30 -29 -19
-18 -26 -13 -29 -22 -26 -26 -17
-18 -24 -8 -22 -17 -22 -23 -15
-17 -22 -5 -17 -14 -19 -21 -13
-17 -21 -5 -16 -14 -19 -21 -13
-17 -20 -5 -14 -13 -19 -21 -13
-16 -18 -4 -13 -12 -18 -21 -12
-16 -17 -4 -11 -12 -18 -21 -12
-15 -16 -3 -10 -11 -17 -20 -11
-14 -16 -3 -9 -11 -17 -20 -11
-14 -16 -3 -9 -10 -17 -20 -11
-13 -16 -3 -8 -9 -17 -19 -11
-12 -16 -3 -7 -9 -17 -19 -11
-11 -16 -2 -6 -8 -16 -18 -10
-11 -16 -2 -6 -8 -16 -18 -10
-11 -16 -2 -6 -8 -16 -17 -10
-11 -16 -2 -6 -8 -16 -16 -10
-11 -16 -2 -6 -8 -16 -16 -10
-11 -16 0 -5 -7 -15 -15 -9
-11 -16 0 -5 -7 -15 -15 -9
-11 -16 0 -5 -6 -15 -15 -9
-11 -15 0 -5 -5 -15 -15 -8
-11 -15 0 -5 -5 -15 -15 -8
-11 -14 1 -4 -4 -14 -15 -7
-10 -14 1 -4 -4 -14 -15 -7
-10 -14 1 -4 -4 -14 -15 -7
-9 -14 1 -4 -4 -14 -15 -7
-8 -14 1 -4 -4 -14 -15 -7
-7 -13 1 -5 -5 -14 -14 -8
-7 -13 1 -5 -4 -14 -14 -8
-7 -13 1 -5 -4 -14 -14 -8
-8 -13 1 -5 -3 -14 -14 -7
-8 -13 1 -5 -2 -14 -14 -7
-9 -14 2 -4 0 -15 -13 -6
-9 -14 2 -4 0 -15 -13 -6
-8 -14 2 -4 0 -15 -13 -6
-7 -13 1 -4 0 -15 -13 -6
-7 -13 1 -4 0 -15 -13 -6
-6 -12 0 -4 0 -14 -14 -5
-6 -12 0 -3 1 -14 -13 -5
-6 -12 0 -2 2 -13 -13 -4
-6 -11 0 0 3 -12 -12 -3
-6 -11 0 1 4 -12 -11 -3
-5 -10 0 2 5 -11 -10 -2
-5 -10 0 3 5 -11 -10 -2
-4 -10 0 3 6 -11 -10 -2
-3 -10 0 4 7 -11 -9 0
-3 -10 0 5 7 -11 -9 0
-2 -11 0 6 8 -10 -8 1
-2 -11 0 6 8 -10 -8 1
-2 -11 0 6 8 -10 -8 1
-2 -11 -2 6 9 -10 -7 1
-2 -11 -2 6 9 -10 -7 1
-2 -10 -3 6 10 -10 -6 2
0 -9 -4 6 11 -9 -5 2
2 -9 -5 6 11 -8 -5 3
3 -8 -6 6 12 -7 -4 3
5 -7 -8 6 13 -6 -3 4
6 -6 -9 5 14 -5 -2 5
7 -6 -11 5 15 -4 0 5
9 -6 -12 5 17 -2 0 5
10 -5 -14 5 18 0 1 6
12 -5 -15 5 20 2 2 6
13 -4 -17 5 21 3 3 7
15 -3 -19 5 23 4 4 8
17 -2 -21 5 24 6 6 10
19 0 -22 5 26 7 7 11
21 1 -24 5 27 9 9 13
23 2 -26 5 29 10 10 14
23 2 -27 4 29 10 11 15
23 2 -27 4 29 11 11 15
24 2 -28 3 29 11 12 16
24 2 -29 2 29 12 13 17
25 3 -30 1 30 13 14 18
25 3 -31 -2 29 12 14 18
25 4 -33 -4 29 11 14 18
26 4 -34 -6 28 10 14 19
26 5 -36 -8 27 9 14 19
27 6 -37 -10 26 8 13 20
27 6 -37 -11 25 8 13 20
27 6 -37 -12 25 8 13 20
27 6 -37 -13 24 8 13 20
27 6 -37 -14 23 8 13 20
28 7 -38 -15 22 7 14 19
28 7 -37 -16 22 7 14 19
28 7 -36 -16 22 7 13 19
27 7 -35 -17 21 6 13 19
27 7 -34 -18 21 6 12 19
26 6 -33 -19 20 5 11 19
23 6 -31 -18 19 4 10 18
21 6 -28 -17 17 2 9 18
18 6 -26 -16 16 1 8 17
15 6 -24 -15 14 -2 6 16
13 6 -22 -14 13 -3 5 15
10 4 -19 -13 12 -4 4 14
8 2 -17 -11 11 -5 3 13
5 0 -15 -10 10 -6 2 12
2 -3 -12 -8 8 -7 1 10
0 -5 -10 -7 7 -8 0 9
0 -5 -8 -5 7 -8 -2 8
0 -5 -6 -4 6 -8 -3 7
-2 -6 -4 -2 6 -9 -4 6
-2 -6 -2 0 5 -9 -5 5
-3 -7 1 2 4 -10 -6 4
-4 -7 2 2 3 -10 -7 4
-4 -7 3 2 2 -10 -8 3
-5 -7 4 3 1 -10 -9 3
-6 -7 5 3 0 -10 -10 2
-7 -8 6 4 -2 -11 -11 1
-8 -9 6 4 0 -9 -11 1
-9 -10 6 4 0 -7 -11 0
-10 -11 7 4 1 -6 -12 0
-11 -12 7 4 2 -4 -12 -2
-12 -13 8 5 3 -2 -13 -3
-12 -13 8 5 3 -2 -13 -3
-12 -12 8 5 3 -2 -13 -4
-12 -12 8 5 2 -2 -13 -4
-12 -11 8 5 2 -2 -13 -5
-13 -10 9 5 1 -3 -14 -6
-13 -10 9 5 1 -2 -14 -6
-13 -11 9 5 1 -2 -14 -6
-13 -11 9 5 1 0 -14 -6
-13 -12 9 5 1 1 -14 -6
-12 -13 10 4 1 2 -14 -6
-12 -13 10 4 1 2 -14 -6
-12 -13 10 4 1 2 -14 -6
-13 -13 10 4 1 2 -14 -6
-13 -13 10 4 1 2 -14 -6
-14 -13 9 5 1 1 -13 -5
-14 -13 9 5 1 1 -13 -5
-14 -12 9 5 1 1 -13 -5
-13 -12 10 6 1 2 -13 -5
-13 -11 10 6 1 2 -13 -5
-12 -10 11 7 1 3 -12 -6
-12 -10 11 7 1 3 -12 -6
-12 -10 11 7 1 3 -12 -6
-12 -9 11 7 1 3 -12 -6
-12 -9 11 7 1 3 -12 -6
-11 -8 11 7 1 4 -12 -5
-11 -7 11 7 1 4 -12 -5
-11 -7 11 7 1 4 -12 -5
-11 -6 11 7 1 4 -12 -5
-11 -5 11 7 1 4 -12 -5
-12 -4 11 8 1 3 -11 -6
-12 -4 11 8 1 3 -11 -6
-12 -4 11 9 1 4 -11 -6
-12 -4 11 9 2 4 -11 -5
-12 -4 11 10 2 5 -11 -5
-11 -4 12 11 3 6 -10 -4
-11 -4 12 11 3 6 -10 -4
-11 -3 12 11 3 6 -10 -4
-11 -3 12 11 2 5 -9 -4
-11 -2 12 11 2 5 -9 -4
-10 0 11 10 1 4 -8 -4
-10 0 12 10 1 4 -8 -4
-10 1 12 11 2 4 -7 -4
-9 1 13 11 2 5 -7 -3
-9 2 14 12 3 5 -6 -3
-8 3 15 13 4 6 -5 -2
-8 4 15 13 4 6 -5 -2
-8 4 16 13 4 6 -4 -2
-8 5 16 13 4 7 -4 0
-8 6 17 13 4 7 -3 0
-8 7 18 14 5 8 -2 1
-8 7 18 14 5 8 -2 1
-8 8 18 15 5 8 -2 1
-8 9 18 15 5 9 -2 2
-8 10 18 16 5 9 -2 2
-7 11 19 17 6 10 -2 3
-7 11 19 17 6 10 -2 3
-7 11 20 17 6 10 -2 3
-7 12 20 17 6 10 -2 3
-7 12 21 17 6 10 -2 3
-6 13 22 18 7 10 0 4
-6 14 22 18 7 10 0 4
-5 16 21 18 6 9 0 4
-5 17 20 17 5 8 1 4
-4 18 19 17 4 7 1 4
-3 20 18 16 3 6 2 3
-3 20 18 16 3 6 2 3
-3 21 18 16 3 6 3 4
-3 21 19 16 3 6 3 5
-3 22 19 16 3 6 4 6
-4 23 20 15 4 7 5 7
-3 23 20 15 4 7 5 7
-2 23 19 15 4 7 5 7
0 23 19 15 5 7 5 7
1 23 18 15 5 7 5 7
2 22 17 15 6 8 5 8
2 20 16 15 5 6 5 7
2 18 14 14 3 4 5 5
2 15 13 13 1 3 4 4
2 13 12 12 0 1 4 3
2 11 10 11 -3 -2 3 1
2 9 10 10 -3 -2 2 1
1 8 10 8 -4 -3 1 0
1 6 9 7 -4 -3 0 0
0 4 9 6 -5 -4 -3 -2
-2 2 8 4 -6 -5 -4 -3
-3 0 8 4 -6 -5 -4 -3
-5 -2 8 4 -7 -6 -5 -4
-6 -4 8 3 -7 -7 -6 -4
-7 -6 8 3 -8 -8 -7 -5
-9 -8 8 2 -9 -9 -8 -6
-9 -8 7 1 -9 -9 -8 -6
-9 -9 6 0 -9 -9 -9 -7
-9 -10 5 -2 -10 -9 -9 -7
-9 -11 4 -3 -10 -9 -10 -8
-8 -12 3 -4 -11 -8 -11 -9
-8 -12 3 -4 -11 -8 -11 -9
-8 -13 3 -4 -11 -8 -11 -9
-9 -13 2 -5 -11 -9 -11 -10
-9 -14 2 -5 -11 -9 -11 -10
-10 -15 1 -6 -11 -10 -11 -11
-10 -15 1 -6 -11 -10 -11 -11
-10 -14 1 -6 -11 -10 -11 -11
-10 -14 1 -6 -11 -10 -11 -11
-10 -13 1 -6 -11 -10 -11 -11
-9 -12 0 -6 -12 -10 -11 -11
-9 -12 0 -6 -12 -10 -11 -11
-8 -12 0 -5 -12 -10 -11 -11
-8 -13 0 -4 -12 -10 -11 -11
-7 -13 0 -3 -12 -10 -11 -11
-6 -14 -2 -2 -13 -11 -11 -11
-6 -14 -2 -2 -13 -11 -11 -11
-7 -14 -2 -2 -13 -12 -11 -11
-7 -14 -2 -2 -13 -12 -11 -11
-8 -14 -2 -2 -13 -13 -11 -11
-9 -14 0 -3 -12 -14 -11 -11
-8 -14 0 -3 -12 -14 -11 -11
-6 -14 0 -3 -12 -14 -11 -12
-5 -15 -2 -3 -11 -13 -11 -12
-4 -15 -2 -3 -11 -13 -11 -13
-2 -16 -2 -2 -9 -11 -12 -14
3 -12 8 12 -2 -5 -8 -13
6 -8 17 26 5 2 -4 -11
10 -4 26 39 12 8 1 -10
14 0 34 54 19 14 5 -9
18 6 44 68 29 22 11 -5
27 21 49 88 51 43 27 8
36 35 55 106 72 64 44 20
46 51 61 126 95 85 60 32
54 66 67 144 116 105 76 46
62 80 71 159 136 123 92 58
62 94 61 154 144 133 103 70
63 107 51 148 153 143 113 82
63 120 40 142 161 152 125 95
64 135 31 136 171 161 136 107
61 143 21 122 170 162 141 115
36 123 13 74 121 116 111 97
13 104 5 25 74 71 81 78
-12 85 -4 -23 26 26 52 60
-36 65 -12 -71 -22 -19 22 40
-57 47 -20 -113 -63 -58 -5 24
-57 31 -29 -119 -72 -69 -16 12
-58 16 -38 -126 -81 -80 -27 1
-58 2 -48 -133 -92 -91 -37 -12
-59 -14 -57 -139 -101 -102 -49 -23
-59 -27 -65 -143 -108 -110 -58 -33
-52 -28 -61 -127 -98 -102 -55 -34
-44 -30 -57 -111 -89 -94 -52 -35
-35 -32 -53 -96 -79 -86 -48 -36
-28 -33 -50 -79 -69 -76 -45 -37
-21 -35 -45 -65 -60 -68 -41 -38
-19 -32 -39 -55 -54 -63 -37 -36
-17 -29 -33 -44 -47 -57 -33 -33
-15 -25 -27 -33 -40 -51 -29 -31
-12 -22 -21 -23 -33 -45 -25 -29
-10 -19 -15 -14 -27 -38 -21 -26
-10 -18 -13 -11 -25 -36 -19 -25
-10 -17 -12 -8 -23 -35 -18 -23
-9 -16 -10 -4 -21 -33 -16 -22
-9 -15 -8 0 -18 -31 -14 -21
-8 -13 -6 3 -16 -29 -12 -19
-8 -13 -6 3 -16 -29 -12 -19
-8 -13 -6 4 -16 -29 -12 -19
-8 -13 -6 4 -16 -29 -12 -19
-8 -13 -6 5 -16 -29 -12 -19
-7 -14 -5 6 -15 -29 -12 -19
-6 -14 -5 6 -15 -29 -12 -19
-5 -13 -5 6 -14 -28 -11 -18
-4 -13 -4 6 -13 -28 -10 -18
-3 -12 -4 6 -12 -27 -9 -17
-2 -11 -3 7 -11 -26 -8 -16
-2 -11 -3 7 -11 -26 -8 -16
-3 -11 -3 7 -11 -26 -8 -16
-3 -11 -3 7 -12 -26 -8 -16
-4 -11 -3 7 -12 -26 -8 -16
-5 -12 -3 6 -13 -27 -7 -17
-5 -12 -3 6 -13 -27 -7 -17
-4 -12 -3 5 -13 -27 -7 -17
-4 -12 -3 5 -12 -27 -7 -17
-3 -12 -3 4 -12 -27 -7 -17
-2 -12 -3 3 -11 -27 -6 -17
-2 -12 -3 3 -11 -27 -6 -17
0 -12 -3 3 -11 -27 -5 -17
0 -12 -3 4 -10 -27 -4 -17
1 -12 -3 4 -10 -27 -3 -17
2 -12 -3 5 -9 -27 -2 -16
2 -12 -3 5 -9 -27 -2 -16
2 -12 -3 6 -9 -27 -2 -16
2 -12 -3 6 -9 -26 -2 -15
2 -12 -3 7 -9 -26 -2 -15
2 -11 -3 8 -8 -25 0 -14
2 -11 -3 8 -8 -25 0 -14
2 -11 -3 8 -7 -24 0 -14
3 -11 -3 9 -6 -24 0 -14
3 -11 -3 9 -5 -23 0 -14
4 -12 -4 10 -4 -22 0 -15
4 -12 -4 10 -4 -22 0 -15
4 -12 -4 10 -3 -21 0 -15
4 -12 -4 11 -2 -20 1 -14
4 -12 -4 11 0 -19 1 -14
4 -11 -4 12 1 -18 2 -13
4 -11 -4 12 1 -18 2 -13
5 -11 -4 12 1 -18 3 -13
5 -10 -5 12 2 -17 3 -13
6 -10 -5 12 2 -17 4 -13
7 -9 -6 11 3 -16 5 -12
7 -9 -6 11 3 -15 6 -12
8 -9 -7 11 4 -14 7 -11
8 -9 -7 11 5 -13 9 -10
9 -9 -8 11 6 -12 10 -9
10 -9 -9 12 7 -11 12 -8
11 -8 -10 12 7 -11 12 -8
12 -7 -11 12 8 -11 13 -7
14 -6 -12 12 9 -10 14 -7
15 -5 -13 12 10 -10 15 -6
17 -3 -15 12 11 -9 16 -5
18 -3 -16 12 12 -8 17 -4
19 -3 -17 12 13 -7 18 -3
21 -3 -19 11 14 -5 19 -2
22 -3 -20 11 15 -4 20 0
24 -2 -22 10 16 -2 22 2
24 -2 -24 9 17 0 23 3
24 -2 -26 8 18 1 24 4
25 0 -28 6 19 2 25 5
25 0 -30 5 20 3 26 6
26 1 -32 3 21 4 28 8
27 2 -33 2 22 7 28 8
28 3 -34 0 23 10 28 8
29 4 -35 -2 24 13 29 8
30 5 -36 -4 25 16 29 8
31 6 -37 -6 27 19 30 9
31 6 -37 -7 27 19 30 9
32 6 -38 -8 27 19 30 9
32 6 -39 -10 27 19 30 10
33 6 -40 -11 27 19 30 10
34 6 -41 -13 26 19 30 11
33 6 -41 -14 26 19 30 11
32 6 -41 -15 25 18 30 11
31 6 -41 -16 24 18 30 11
30 6 -41 -17 23 17 30 11
28 5 -41 -18 22 16 29 11
27 5 -39 -18 22 15 29 11
25 5 -37 -18 21 14 29 11
24 4 -35 -18 20 13 28 11
22 4 -33 -18 19 12 28 11
20 3 -31 -19 18 10 27 10
19 3 -29 -19 17 9 26 9
17 3 -27 -19 15 7 25 8
16 3 -25 -19 14 6 23 6
14 3 -23 -19 12 4 22 5
12 2 -21 -18 10 2 20 3
10 1 -18 -17 10 2 19 2
8 -2 -16 -15 9 1 18 1
6 -3 -13 -13 8 0 17 0
4 -5 -10 -11 7 -2 16 -2
1 -7 -7 -9 6 -3 14 -4
0 -7 -6 -8 6 -3 14 -4
-2 -7 -5 -7 5 -4 13 -5
-3 -8 -3 -6 5 -4 12 -6
-4 -8 -2 -5 4 -5 11 -7
-5 -9 1 -4 3 -6 10 -8
-5 -9 1 -4 3 -7 10 -8
-6 -10 1 -4 2 -8 9 -9
-6 -10 2 -4 1 -9 8 -10
-7 -11 2 -4 0 -10 7 -11
-8 -12 3 -3 -2 -11 6 -12
-8 -12 3 -3 -2 -11 6 -12
-8 -12 3 -3 -2 -11 6 -12
-9 -12 4 -3 -2 -10 6 -12
-9 -12 4 -3 -2 -10 6 -12
-10 -11 5 -4 -3 -9 5 -13
-10 -11 5 -4 -3 -9 5 -13
-10 -11 5 -4 -3 -9 5 -13
-10 -11 5 -4 -3 -8 4 -13
-10 -11 5 -4 -3 -8 4 -13
-11 -12 4 -5 -3 -7 3 -14
-11 -12 4 -5 -3 -7 3 -14
-11 -12 4 -5 -3 -6 3 -14
-11 -12 5 -5 -2 -6 3 -13
-11 -12 5 -5 -2 -5 3 -13
-12 -13 6 -4 0 -4 3 -12
-12 -13 6 -3 0 -4 3 -12
-12 -12 6 -2 0 -4 3 -12
-12 -12 7 0 0 -4 3 -12
-12 -11 7 1 0 -4 3 -12
-12 -10 8 3 0 -3 3 -12
-12 -10 8 3 0 -3 3 -12
-12 -10 8 4 0 -3 3 -12
-11 -10 8 5 0 -2 4 -11
-11 -10 8 6 0 -2 4 -11
-10 -10 9 7 1 0 5 -10
-10 -10 9 7 1 0 5 -10
-10 -10 9 8 1 0 5 -10
-10 -9 9 9 1 0 5 -10
-10 -9 9 10 1 0 5 -10
-11 -8 9 11 1 1 5 -9
-11 -8 9 11 1 1 5 -9
-11 -8 9 11 1 1 5 -9
-11 -8 9 11 1 1 5 -9
-11 -8 9 11 1 1 5 -9
-10 -7 9 12 1 1 6 -9
-10 -7 9 12 1 1 6 -9
-10 -7 9 12 1 1 6 -9
-10 -7 9 12 2 1 6 -8
-10 -7 9 12 2 1 6 -8
-10 -8 9 12 3 1 6 -7
-10 -8 9 12 3 1 6 -7
-10 -8 9 12 3 2 6 -7
-10 -7 10 12 3 2 6 -7
-10 -7 10 12 3 3 6 -7
-10 -6 11 12 3 4 7 -6
-9 -4 12 12 4 4 7 -6
-8 -2 13 13 5 5 7 -5
-7 1 14 14 6 6 8 -5
-6 3 15 15 7 7 8 -4
-5 5 16 16 8 8 9 -3
-5 5 16 16 8 8 9 -3
-5 5 16 16 8 8 9 -3
-6 5 16 17 8 8 9 -2
-6 5 16 17 8 8 9 -2
-7 4 17 18 9 8 10 0
-7 4 17 18 9 8 10 0
-7 5 18 18 9 8 10 0
-7 5 18 18 9 8 10 0
-7 6 19 18 9 8 10 0
-8 7 20 19 8 8 11 -2
-7 8 20 19 8 8 11 -2
-5 10 20 19 8 9 11 0
-4 12 21 19 8 9 11 0
-2 14 21 19 8 10 11 1
1 16 22 20 9 11 12 2
1 16 22 20 9 11 12 2
1 16 21 19 9 11 12 2
0 16 21 19 9 11 12 3
0 16 20 18 9 11 12 3
-2 17 19 17 9 11 12 4
-2 18 19 17 9 11 12 4
0 19 18 17 9 11 12 4
1 20 18 16 8 11 12 5
2 21 17 16 8 11 12 5
3 22 16 15 7 11 12 6
3 22 16 15 7 11 12 6
3 21 16 15 7 10 12 6
3 20 15 14 6 10 11 6
3 19 15 14 6 9 11 6
3 18 14 13 5 8 10 5
3 16 13 12 4 7 9 4
3 13 12 10 3 6 7 3
3 10 10 9 2 5 6 1
3 7 9 7 1 4 4 0
2 4 7 5 0 2 2 -3
1 2 7 5 -2 1 2 -3
0 0 7 4 -3 0 1 -3
-2 -3 7 3 -4 -2 0 -4
-3 -5 7 2 -5 -3 -2 -4
-5 -8 6 1 -6 -4 -3 -5
-5 -8 6 1 -6 -4 -3 -5
-5 -8 6 0 -7 -5 -4 -5
-6 -8 6 0 -7 -6 -4 -6
-6 -8 6 -2 -8 -7 -5 -6
-6 -8 6 -2 -8 -7 -5 -6
-7 -9 5 -3 -9 -8 -6 -7
-7 -10 4 -3 -9 -8 -7 -8
-8 -11 4 -4 -10 -9 -8 -8
-8 -12 3 -4 -10 -9 -9 -9
-8 -12 3 -4 -10 -9 -9 -9
-9 -13 2 -5 -11 -10 -10 -10
-9 -13 2 -5 -12 -10 -10 -10
-9 -13 2 -5 -12 -10 -11 -10
-9 -13 2 -5 -13 -10 -11 -10
-9 -13 2 -5 -13 -10 -11 -10
-9 -13 1 -6 -14 -11 -12 -11
-9 -13 1 -6 -14 -11 -12 -11
-9 -13 1 -6 -14 -11 -12 -10
-9 -13 1 -6 -14 -11 -12 -10
-9 -13 1 -6 -14 -11 -12 -10
-8 -13 1 -6 -13 -11 -12 -9
-8 -14 1 -6 -13 -11 -13 -9
-8 -15 0 -6 -13 -11 -13 -10
-8 -16 0 -6 -13 -11 -14 -10
-8 -16 0 -6 -13 -11 -14 -10
-8 -17 -2 -7 -13 -10 -15 -11
-8 -16 -2 -7 -13 -10 -15 -11
-8 -16 -2 -7 -13 -10 -15 -10
-8 -15 -2 -7 -13 -10 -15 -10
-8 -15 -2 -7 -13 -10 -15 -10
-6 -14 2 -3 -11 -8 -14 -9
-4 -14 4 3 -9 -6 -14 -10
-3 -14 6 8 -7 -5 -14 -11
0 -14 8 13 -5 -3 -14 -12
1 -14 10 18 -3 -2 -14 -12
9 -7 18 35 12 13 -10 -7
16 3 26 52 26 27 -4 0
23 11 34 69 40 42 2 7
31 19 43 86 55 55 8 13
38 27 51 103 69 69 13 19
45 47 55 117 91 91 35 35
50 65 59 132 112 112 57 52
56 85 62 145 134 134 79 69
61 103 66 159 155 156 102 86
66 122 69 174 177 178 125 102
60 122 59 147 167 170 121 103
53 120 47 118 155 159 116 103
45 119 35 90 144 149 111 103
36 117 23 62 132 140 106 103
29 116 11 33 120 130 102 103
9 94 3 -3 76 88 71 84
-13 71 -5 -37 32 45 40 62
-33 48 -12 -73 -13 2 9 42
-54 25 -20 -109 -58 -43 -22 20
-75 2 -27 -144 -103 -86 -53 -2
-69 -8 -32 -140 -102 -85 -56 -7
-62 -18 -38 -134 -98 -81 -57 -12
-54 -27 -44 -128 -94 -77 -59 -17
-46 -36 -49 -120 -90 -74 -60 -22
-38 -46 -54 -114 -86 -71 -61 -27
-33 -45 -51 -101 -76 -63 -59 -27
-29 -43 -47 -89 -68 -55 -55 -26
-25 -39 -41 -75 -60 -47 -51 -24
-21 -37 -36 -63 -51 -38 -47 -23
-17 -35 -32 -50 -43 -30 -43 -22
-16 -33 -27 -43 -37 -25 -39 -20
-16 -31 -23 -34 -32 -21 -36 -18
-15 -29 -19 -27 -27 -16 -34 -16
-15 -27 -14 -20 -23 -11 -31 -14
-15 -26 -10 -13 -18 -7 -29 -12
-13 -24 -9 -11 -17 -5 -28 -11
-11 -23 -8 -10 -16 -3 -27 -10
-9 -22 -7 -9 -15 -2 -26 -10
-7 -21 -6 -8 -14 1 -25 -9
-5 -20 -5 -7 -13 2 -24 -9
-4 -19 -4 -6 -12 3 -23 -8
-4 -19 -4 -5 -12 4 -23 -8
-5 -18 -4 -4 -11 4 -23 -8
-5 -18 -4 -3 -11 5 -23 -8
-5 -18 -4 -2 -11 5 -23 -8
-6 -17 -4 0 -10 6 -23 -7
-6 -17 -4 0 -10 7 -23 -7
-6 -17 -4 0 -10 7 -22 -6
-6 -17 -4 0 -10 8 -22 -6
-6 -17 -4 0 -10 8 -22 -6
-6 -18 -3 1 -9 9 -21 -5
-6 -17 -3 2 -8 10 -21 -5
-6 -17 -3 3 -8 11 -21 -5
-6 -16 -3 4 -7 12 -21 -5
-6 -16 -3 5 -7 12 -21 -5
-5 -15 -3 6 -6 13 -22 -5
-4 -15 -3 6 -6 13 -22 -5
-3 -15 -3 6 -6 13 -22 -4
-2 -15 -3 6 -6 13 -22 -4
0 -15 -3 6 -6 13 -22 -4
1 -14 -4 5 -6 13 -21 -3
1 -13 -4 5 -6 13 -21 -3
1 -13 -4 5 -6 14 -21 -3
1 -12 -4 5 -6 14 -21 -3
1 -12 -4 5 -6 14 -21 -3
1 -11 -4 5 -5 15 -21 -4
1 -11 -4 6 -4 16 -20 -3
1 -11 -4 6 -3 17 -20 -2
1 -11 -4 7 -2 18 -19 0
1 -11 -4 7 -2 18 -19 0
0 -12 -5 8 0 19 -18 1
1 -12 -5 8 0 20 -18 1
1 -12 -5 9 0 20 -18 1
2 -12 -5 9 0 21 -18 1
2 -12 -5 9 0 21 -18 1
3 -12 -5 10 0 22 -19 1
4 -12 -5 10 1 23 -18 2
5 -12 -5 10 2 24 -17 2
6 -12 -5 10 3 25 -16 3
6 -12 -5 10 4 25 -16 3
7 -11 -6 10 5 26 -15 4
8 -11 -6 11 5 27 -15 5
8 -11 -7 11 5 28 -14 5
9 -11 -7 12 5 29 -14 6
9 -11 -7 12 5 30 -14 6
10 -10 -9 13 6 31 -13 7
11 -9 -10 12 7 31 -13 7
11 -9 -11 12 8 31 -12 7
12 -8 -12 11 9 31 -12 7
12 -8 -13 11 9 31 -12 7
14 -6 -14 10 10 32 -11 7
16 -5 -15 10 11 33 -10 8
17 -4 -16 9 12 34 -9 9
19 -3 -17 9 13 35 -8 10
20 -2 -18 9 13 36 -8 10
22 0 -20 7 14 37 -7 11
25 0 -22 6 15 38 -6 12
27 1 -24 5 16 39 -5 13
29 1 -26 4 17 40 -4 14
31 1 -28 3 18 40 -4 15
32 2 -30 2 19 42 -3 16
33 2 -31 1 19 42 -2 17
33 2 -33 1 20 43 0 18
34 2 -34 0 20 43 1 19
34 2 -35 0 20 43 2 20
35 3 -37 -4 21 44 3 21
35 4 -38 -6 21 44 4 21
36 4 -40 -8 20 43 4 22
36 5 -41 -11 20 43 5 22
36 5 -43 -13 20 43 5 22
37 6 -44 -14 19 42 6 23
37 6 -44 -15 18 40 6 23
36 6 -44 -15 17 39 6 23
36 6 -44 -16 16 38 6 23
36 6 -44 -16 15 38 6 23
35 7 -43 -17 14 36 6 23
34 7 -41 -18 13 35 6 23
33 7 -40 -19 12 33 5 23
32 7 -39 -20 11 32 5 23
32 7 -39 -20 10 31 5 23
31 6 -37 -21 9 29 4 23
30 6 -35 -20 8 28 3 22
29 6 -33 -19 7 27 2 21
28 6 -31 -18 6 26 1 20
27 6 -29 -18 6 25 1 19
24 5 -26 -16 5 23 -2 18
22 4 -23 -15 4 22 -3 17
19 3 -20 -14 3 20 -5 17
16 2 -18 -13 2 19 -6 16
14 2 -15 -12 1 18 -7 16
12 1 -13 -10 0 17 -8 15
10 0 -11 -9 -2 16 -9 14
8 -2 -9 -7 -2 15 -10 13
7 -3 -8 -6 -3 14 -11 12
5 -3 -6 -5 -3 14 -12 11
4 -4 -5 -4 -4 13 -13 9
3 -5 -4 -3 -5 12 -13 8
2 -6 -3 -2 -5 11 -14 7
1 -7 -2 0 -6 10 -14 6
1 -8 0 0 -6 9 -14 5
0 -9 1 1 -7 8 -15 4
-2 -9 2 1 -7 7 -16 3
-3 -9 3 1 -8 7 -16 2
-4 -9 4 1 -8 6 -17 1
-4 -9 4 1 -8 6 -17 1
-5 -9 5 2 -9 5 -18 0
-5 -9 5 2 -9 4 -18 0
-6 -10 5 2 -9 3 -18 0
-6 -10 5 2 -9 2 -18 0
-6 -10 5 2 -9 2 -18 0
-7 -11 5 2 -10 1 -17 0
-7 -11 6 3 -10 1 -17 0
-7 -12 6 4 -10 1 -17 0
-7 -12 7 5 -10 1 -17 0
-7 -12 7 5 -10 1 -17 0
-6 -13 8 6 -9 1 -17 0
-6 -12 8 6 -9 1 -17 0
-7 -12 8 6 -9 1 -17 0
-7 -11 8 6 -9 1 -17 0
-7 -11 8 6 -9 1 -17 0
-8 -10 7 5 -10 1 -16 -2
-8 -10 7 6 -9 1 -16 -2
-8 -10 7 6 -9 1 -16 -2
-8 -10 7 7 -8 1 -16 -2
-8 -10 7 7 -8 1 -16 -2
-8 -11 7 8 -7 2 -16 -3
-8 -10 7 8 -7 2 -16 -3
-8 -10 7 8 -7 2 -15 -3
-8 -9 7 8 -7 2 -15 -3
-8 -9 7 8 -7 2 -15 -3
-9 -8 8 8 -8 2 -14 -3
-9 -8 8 9 -7 3 -13 -3
-9 -8 8 9 -6 4 -13 -2
-9 -8 8 10 -5 5 -12 -2
-9 -8 8 10 -4 5 -12 -2
-8 -8 9 11 -3 6 -11 0
-8 -7 9 11 -3 6 -11 0
-8 -6 9 11 -3 5 -11 0
-8 -5 9 11 -3 5 -11 0
-8 -4 9 11 -3 5 -11 0
-7 -3 8 10 -2 4 -12 -2
-7 -3 8 10 -2 4 -12 -2
-6 -3 9 10 -2 4 -12 -2
-6 -3 9 10 -2 4 -12 -2
-6 -3 9 10 -2 4 -12 -2
-5 -2 10 10 0 5 -11 -2
-5 0 10 10 0 5 -10 -2
-4 0 10 10 0 5 -9 -2
-4 1 10 10 0 5 -8 -2
-4 1 10 10 0 5 -8 -2
-3 2 10 11 1 6 -7 0
-3 3 11 12 2 7 -7 1
-4 3 11 13 2 7 -6 1
-4 4 12 14 3 8 -6 2
-4 4 12 15 3 8 -6 2
-5 5 13 16 4 9 -5 3
-5 6 13 16 4 9 -5 3
-4 6 14 16 4 9 -4 3
-4 7 14 16 4 9 -4 3
-4 7 14 16 4 9 -4 3
-3 8 15 16 4 9 -3 2
-3 8 16 16 5 9 -3 2
-3 9 17 17 5 10 -3 3
-3 9 18 17 6 10 -3 3
-3 9 18 17 6 10 -3 3
-4 10 19 18 7 11 -2 4
-3 12 19 18 7 11 0 4
-3 13 19 17 7 10 1 4
-2 14 19 17 7 10 2 4
-2 15 19 17 7 10 2 4
0 16 18 16 6 9 3 5
0 17 18 16 6 9 3 5
0 18 17 16 6 9 3 6
0 19 17 16 6 9 3 6
0 19 17 16 6 9 3 6
0 20 16 15 6 9 4 7
1 21 16 14 6 9 5 7
2 21 16 14 6 10 5 8
4 22 16 13 6 10 6 8
5 22 16 13 6 10 6 8
6 21 14 11 6 10 6 8
5 18 13 8 4 8 4 6
4 16 12 6 2 6 2 4
3 13 10 3 0 4 0 3
2 10 9 1 -3 2 -3 1
1 9 8 0 -4 1 -4 0
1 7 8 0 -4 1 -4 -2
1 6 7 0 -4 0 -4 -2
1 5 7 0 -4 0 -4 -3
1 4 7 0 -4 0 -4 -3
0 2 6 -2 -5 -2 -5 -4
-3 1 6 -2 -6 -3 -5 -5
-4 -2 5 -3 -7 -4 -6 -5
-5 -4 5 -3 -8 -5 -6 -6
-6 -5 5 -3 -8 -5 -6 -6
-7 -6 4 -4 -9 -6 -7 -7
-7 -7 4 -5 -10 -7 -7 -7
-7 -8 4 -6 -11 -7 -8 -7
-7 -9 4 -7 -12 -8 -8 -7
-7 -9 4 -7 -12 -8 -8 -7
-8 -10 4 -8 -13 -9 -9 -8
-8 -11 4 -8 -13 -9 -10 -9
-8 -11 3 -8 -13 -9 -10 -9
-8 -12 3 -8 -13 -9 -11 -10
-8 -12 3 -8 -13 -9 -11 -10
-9 -13 2 -7 -13 -10 -12 -11
-9 -13 2 -7 -13 -11 -12 -11
-9 -13 2 -8 -13 -12 -12 -11
-9 -13 2 -8 -13 -13 -12 -11
-9 -13 2 -8 -13 -13 -12 -11
-8 -12 1 -9 -14 -14 -11 -11
-8 -12 1 -9 -14 -14 -11 -11
-9 -12 0 -9 -14 -14 -11 -10
-9 -12 0 -9 -14 -14 -11 -10
-9 -12 0 -9 -14 -14 -11 -10
-10 -12 -2 -8 -14 -13 -12 -9
-10 -12 -2 -8 -15 -13 -12 -9
-10 -13 -2 -9 -15 -14 -12 -10
-10 -13 -2 -9 -16 -14 -12 -10
-10 -13 -2 -9 -16 -14 -12 -10
-9 -14 -3 -9 -17 -15 -13 -11
-8 -15 -2 -8 -16 -15 -13 -11
-7 -16 -2 -6 -15 -15 -13 -12
-6 -17 0 -4 -14 -15 -13 -12
-5 -17 0 -3 -14 -15 -13 -12
-2 -15 6 7 -8 -10 -12 -12
2 -10 14 19 -2 -3 -8 -10
6 -5 22 31 6 4 -4 -9
9 1 30 44 13 11 1 -7
13 5 38 56 20 17 5 -5
20 16 45 73 38 34 18 6
30 29 50 93 60 56 34 18
39 43 55 112 82 76 51 30
49 56 61 133 105 98 67 43
58 69 66 152 127 118 85 56
61 84 65 154 140 132 97 68
61 98 61 149 150 143 108 81
60 113 57 144 160 154 120 95
60 128 53 139 171 164 132 108
60 142 49 135 181 176 144 120
40 132 42 98 149 145 126 111
16 111 33 52 101 101 96 93
-10 91 25 5 54 56 66 74
-34 70 17 -41 7 11 37 56
-59 51 9 -89 -41 -34 8 37
-66 33 -3 -108 -62 -55 -9 24
-66 18 -15 -118 -73 -67 -21 12
-67 3 -27 -129 -85 -79 -32 0
-67 -13 -39 -139 -96 -92 -45 -13
-67 -29 -51 -149 -108 -104 -57 -24
-62 -34 -55 -143 -105 -103 -58 -28
-54 -35 -54 -129 -97 -95 -55 -28
-45 -37 -53 -115 -88 -87 -52 -29
-35 -38 -52 -101 -78 -78 -49 -29
-27 -40 -51 -88 -70 -71 -46 -29
-23 -39 -46 -76 -63 -64 -43 -29
-21 -36 -38 -67 -57 -59 -39 -27
-19 -33 -32 -57 -51 -53 -36 -25
-17 -30 -26 -48 -44 -48 -33 -23
-15 -27 -19 -37 -37 -41 -29 -21
-14 -25 -15 -31 -33 -38 -27 -19
-14 -24 -13 -27 -30 -35 -24 -17
-14 -23 -10 -22 -26 -32 -21 -15
-14 -21 -7 -18 -23 -30 -19 -13
-14 -20 -4 -14 -19 -27 -16 -11
-14 -19 -3 -12 -18 -26 -15 -10
-14 -19 -3 -12 -18 -26 -15 -10
-13 -18 -4 -12 -18 -26 -15 -10
-13 -18 -4 -12 -18 -26 -15 -10
-13 -18 -4 -12 -18 -26 -15 -10
-12 -17 -5 -11 -17 -26 -15 -10
-12 -16 -4 -10 -17 -26 -14 -10
-11 -15 -4 -9 -16 -26 -13 -9
-11 -15 -3 -8 -16 -26 -13 -9
-11 -14 -3 -7 -16 -26 -12 -9
-10 -13 -2 -6 -15 -25 -11 -8
-10 -13 -2 -6 -14 -25 -11 -7
-9 -13 -3 -6 -14 -24 -11 -7
-9 -13 -3 -6 -13 -24 -11 -6
-9 -13 -3 -6 -13 -24 -11 -6
-8 -14 -4 -5 -12 -23 -10 -5
-8 -14 -3 -5 -11 -22 -10 -5
-8 -13 -2 -4 -10 -22 -9 -5
-8 -13 -2 -4 -10 -21 -9 -5
-8 -13 0 -4 -9 -21 -9 -5
-8 -12 1 -3 -8 -20 -8 -4
-8 -12 1 -3 -8 -20 -8 -4
-8 -12 1 -3 -8 -20 -8 -4
-8 -12 1 -3 -8 -20 -8 -4
-8 -12 1 -3 -8 -20 -8 -4
-9 -12 0 -3 -7 -21 -9 -4
-9 -12 0 -3 -6 -20 -9 -4
-9 -11 0 -2 -5 -20 -9 -4
-9 -11 0 -2 -5 -19 -9 -4
-9 -11 0 -2 -4 -19 -9 -4
-10 -10 0 0 -3 -18 -8 -4
-8 -10 0 0 -3 -18 -8 -3
-7 -10 0 1 -3 -17 -7 -3
-6 -10 0 1 -3 -17 -7 -2
-5 -10 0 1 -3 -17 -7 -2
-4 -9 0 2 -3 -16 -6 0
-3 -9 0 2 -3 -16 -6 0
-2 -9 -2 2 -2 -16 -6 0
-2 -9 -2 2 -2 -16 -6 0
0 -9 -2 2 -2 -16 -6 0
1 -8 -3 1 0 -15 -5 1
1 -8 -4 1 0 -14 -4 2
2 -8 -4 1 1 -14 -3 3
2 -8 -5 1 1 -13 -3 3
2 -8 -5 1 1 -13 -2 4
3 -7 -6 2 2 -12 0 5
3 -7 -6 2 4 -11 1 5
4 -7 -7 3 5 -10 1 5
4 -7 -7 3 6 -10 2 5
4 -7 -7 3 7 -9 2 5
5 -6 -9 4 8 -8 3 6
7 -5 -11 4 9 -7 3 7
8 -4 -13 4 10 -7 4 7
9 -4 -15 4 10 -6 4 8
10 -3 -17 4 11 -6 4 8
12 -2 -18 3 12 -5 5 9
13 -2 -19 3 14 -3 7 10
15 -2 -20 3 15 -2 8 11
16 -2 -21 3 17 1 10 11
18 -2 -22 3 18 2 11 12
19 -2 -24 2 19 3 12 13
21 -2 -26 1 20 4 13 15
22 -2 -28 0 21 5 14 16
23 -2 -31 -2 21 5 15 17
24 -2 -33 -3 22 6 16 18
25 0 -34 -5 23 7 17 19
26 2 -35 -7 23 7 17 19
27 3 -36 -9 23 7 18 19
27 4 -36 -11 23 7 18 19
28 5 -37 -13 23 7 18 19
29 6 -38 -15 22 8 19 19
29 6 -39 -16 21 8 19 19
29 6 -39 -18 21 7 19 20
29 6 -40 -19 20 7 19 20
29 6 -40 -21 20 7 19 20
29 5 -41 -22 19 6 19 21
28 5 -41 -23 18 5 19 21
27 5 -41 -24 17 4 19 22
26 5 -41 -25 17 3 19 22
25 5 -41 -26 16 2 19 22
24 5 -40 -27 14 1 18 23
23 5 -39 -27 13 -2 17 21
21 5 -37 -27 11 -3 15 20
20 5 -36 -27 9 -5 14 18
19 5 -35 -27 7 -6 12 17
17 4 -33 -27 6 -7 11 16
15 4 -30 -25 6 -8 10 15
13 3 -27 -24 5 -9 9 13
11 3 -24 -22 5 -10 8 12
9 3 -21 -21 5 -11 7 11
7 2 -19 -19 4 -12 6 10
6 0 -16 -18 4 -12 5 10
4 -2 -14 -16 3 -12 4 9
2 -4 -11 -15 2 -12 3 8
0 -5 -8 -13 2 -12 2 8
-2 -6 -7 -12 1 -13 1 7
-2 -6 -6 -12 0 -13 0 6
-3 -7 -4 -11 -2 -14 -2 4
-4 -8 -3 -11 -3 -15 -2 3
-4 -8 -2 -11 -4 -15 -3 2
-5 -9 0 -10 -5 -16 -4 1
-6 -9 0 -10 -6 -17 -5 0
-8 -10 1 -9 -7 -18 -6 -2
-9 -10 1 -9 -7 -18 -6 -2
-10 -10 1 -9 -8 -19 -7 -3
-11 -11 2 -8 -9 -20 -8 -4
-11 -11 3 -8 -9 -20 -8 -4
-11 -11 4 -8 -9 -20 -9 -5
-11 -11 4 -8 -9 -20 -9 -5
-11 -11 5 -8 -9 -20 -9 -5
-10 -11 6 -7 -10 -21 -10 -6
-10 -11 6 -7 -10 -21 -10 -6
-10 -11 5 -7 -10 -22 -11 -6
-10 -11 5 -7 -10 -22 -11 -6
-10 -11 5 -7 -10 -22 -11 -6
-11 -10 4 -6 -10 -23 -12 -6
-11 -10 4 -6 -10 -23 -12 -6
-12 -10 5 -6 -10 -22 -12 -7
-12 -10 5 -6 -10 -22 -12 -7
-12 -10 5 -6 -10 -22 -12 -7
-13 -11 6 -6 -9 -21 -12 -8
-13 -11 6 -6 -9 -21 -12 -8
-13 -10 7 -5 -9 -20 -12 -8
-13 -10 7 -5 -9 -20 -12 -8
-13 -10 7 -5 -9 -20 -12 -8
-13 -9 8 -4 -8 -19 -12 -7
-13 -9 8 -4 -8 -19 -12 -7
-13 -9 8 -3 -7 -18 -11 -7
-13 -9 8 -2 -7 -17 -11 -7
-13 -9 8 -2 -7 -17 -11 -7
-13 -10 8 0 -6 -16 -10 -7
-13 -10 8 0 -6 -16 -10 -7
-13 -9 8 1 -5 -15 -9 -7
-13 -9 8 1 -4 -14 -9 -7
-13 -9 8 1 -4 -14 -9 -7
-12 -8 7 2 -3 -13 -8 -6
-12 -8 7 2 -3 -13 -8 -5
-12 -7 8 3 -2 -13 -7 -4
-12 -6 9 3 -2 -13 -6 -4
-12 -6 9 3 -2 -13 -6 -3
-11 -5 10 4 0 -12 -5 -2
-11 -5 10 4 0 -12 -5 -2
-11 -5 10 5 0 -12 -5 -2
-11 -5 10 5 0 -12 -5 -2
-11 -5 10 5 0 -12 -5 -2
-11 -6 9 6 1 -12 -6 -3
-11 -5 9 6 1 -11 -6 -3
-10 -4 9 6 2 -10 -6 -3
-9 -4 9 6 2 -10 -6 -3
-9 -3 9 6 2 -9 -6 -3
-8 -2 9 7 3 -8 -5 -2
-8 0 9 8 4 -7 -4 -2
-8 1 10 9 5 -6 -2 0
-8 2 11 9 5 -5 0 1
-8 3 11 10 6 -4 1 1
-7 4 12 11 7 -3 2 2
-7 5 12 11 7 -3 2 2
-7 6 13 11 7 -3 2 2
-7 6 14 11 7 -3 2 2
-7 7 14 11 7 -3 2 2
-8 8 15 12 7 -4 1 2
-8 9 15 12 7 -3 1 2
-7 10 15 13 8 -2 1 2
-7 10 15 13 8 -2 1 2
-7 11 15 13 8 0 1 2
-6 12 15 14 9 1 1 2
-6 12 16 14 9 1 2 3
-6 13 17 15 10 2 3 4
-6 13 17 15 10 2 3 4
-6 13 18 15 10 2 4 5
-5 14 19 16 11 3 5 6
-5 15 19 16 11 3 5 6
-5 16 18 15 10 3 5 6
-5 16 18 15 9 3 5 6
-5 17 18 15 9 3 5 6
-5 18 17 14 8 3 5 6
-5 18 17 14 8 3 5 6
-4 19 17 14 8 3 6 7
-3 19 17 14 8 3 6 7
-3 19 17 14 8 3 6 7
-2 20 16 14 9 4 7 8
-2 20 16 14 9 4 7 8
0 20 15 13 9 5 8 8
1 20 15 12 9 6 9 8
1 20 15 12 9 6 9 8
2 20 14 11 8 7 9 9
2 18 12 9 6 5 7 7
1 15 10 8 4 4 5 5
1 13 9 6 3 2 3 4
1 11 7 5 1 1 1 2
0 8 6 4 0 0 0 1
-2 7 6 4 0 -2 0 0
-3 5 6 3 -2 -3 -2 -2
-3 3 6 3 -3 -3 -3 -2
-4 1 6 3 -3 -4 -3 -3
-5 0 5 2 -4 -5 -4 -4
-6 -2 5 2 -5 -5 -5 -5
-7 -4 4 1 -6 -6 -6 -6
-8 -5 4 0 -6 -7 -6 -6
-9 -6 4 0 -7 -7 -7 -7
-10 -7 3 -2 -8 -8 -8 -8
-10 -8 3 -2 -8 -8 -8 -8
-10 -9 2 -3 -9 -9 -9 -9
-10 -9 2 -4 -10 -9 -9 -9
-10 -10 2 -4 -10 -9 -9 -9
-11 -11 1 -5 -11 -10 -10 -10
-11 -11 1 -5 -11 -10 -10 -10
-11 -12 1 -5 -12 -10 -10 -10
-11 -12 1 -5 -13 -10 -10 -10
-11 -12 1 -5 -13 -10 -10 -10
-11 -13 0 -6 -14 -10 -11 -11
-11 -13 0 -6 -14 -10 -11 -11
-11 -13 0 -6 -14 -10 -11 -11
-11 -13 0 -6 -14 -10 -11 -11
-11 -13 0 -6 -14 -10 -11 -11
-12 -13 0 -6 -13 -10 -11 -11
-12 -13 0 -6 -13 -10 -11 -11
-11 -13 0 -6 -13 -10 -11 -11
-11 -13 0 -6 -13 -10 -11 -11
-11 -13 0 -6 -13 -10 -11 -11
-10 -14 0 -5 -14 -9 -11 -11
-10 -14 0 -5 -14 -9 -11 -11
-10 -15 -2 -5 -14 -9 -11 -11
-10 -16 -2 -5 -14 -9 -11 -11
-10 -16 -2 -5 -14 -9 -11 -11
-11 -17 -2 -3 -15 -10 -10 -12
-9 -18 3 4 -13 -8 -10 -13
-7 -19 7 9 -11 -7 -11 -14
-6 -19 10 15 -9 -6 -11 -14
-4 -20 14 20 -7 -4 -11 -15
1 -16 20 32 2 4 -7 -13
8 -6 28 50 15 17 3 -8
15 5 37 67 28 29 12 -2
22 15 46 85 42 42 22 5
28 25 55 102 55 55 31 11
34 39 60 116 72 72 47 22
40 57 62 130 95 95 66 38
46 74 65 143 117 117 86 56
51 92 67 155 140 140 105 72
56 109 69 169 162 162 125 89
56 117 65 160 170 170 133 97
50 117 53 134 160 162 130 97
43 117 40 107 151 154 127 98
36 117 27 79 142 147 125 99
29 117 15 53 133 139 121 99
15 104 5 18 101 110 102 89
-7 80 -4 -23 52 62 69 67
-29 57 -12 -64 2 14 35 45
-51 33 -20 -105 -49 -34 3 23
-72 10 -29 -146 -99 -82 -30 2
-79 -6 -35 -161 -120 -104 -47 -12
-70 -15 -41 -154 -116 -101 -49 -17
-61 -23 -48 -146 -112 -97 -50 -22
-52 -32 -53 -138 -108 -94 -51 -27
-44 -40 -59 -130 -104 -91 -53 -32
-37 -46 -59 -118 -98 -86 -53 -35
-33 -45 -54 -104 -90 -77 -49 -34
-29 -44 -48 -91 -81 -69 -45 -32
-25 -43 -41 -76 -73 -62 -40 -31
-21 -41 -35 -62 -64 -54 -36 -30
-19 -39 -30 -52 -58 -48 -33 -28
-18 -36 -24 -44 -53 -44 -29 -26
-17 -33 -19 -35 -48 -38 -25 -24
-16 -31 -13 -28 -43 -33 -22 -22
-15 -28 -8 -20 -37 -29 -18 -20
-14 -26 -5 -16 -34 -26 -16 -18
-13 -24 -4 -14 -33 -25 -16 -17
-12 -22 -3 -12 -31 -24 -15 -16
-12 -21 -3 -11 -30 -23 -14 -16
-11 -19 -2 -9 -29 -22 -14 -15
-10 -18 0 -8 -28 -21 -13 -14
-10 -18 0 -7 -28 -20 -13 -14
-10 -18 0 -6 -27 -19 -12 -13
-10 -18 0 -5 -26 -18 -11 -13
-10 -18 0 -4 -26 -17 -11 -13
-9 -18 1 -3 -25 -16 -10 -12
-9 -18 1 -3 -25 -16 -10 -12
-8 -18 1 -3 -25 -16 -10 -11
-8 -18 1 -3 -25 -16 -10 -11
-8 -18 1 -3 -25 -16 -10 -11
-7 -17 2 -3 -24 -16 -10 -10
-7 -17 2 -3 -24 -16 -10 -10
-7 -17 2 -2 -24 -15 -10 -11
-7 -17 2 0 -24 -15 -10 -11
-7 -17 2 0 -24 -15 -10 -11
-8 -16 3 1 -24 -14 -9 -12
-8 -15 3 1 -24 -14 -9 -12
-7 -14 3 1 -23 -14 -8 -11
-7 -14 3 1 -23 -14 -8 -11
-7 -13 3 1 -23 -14 -8 -11
-6 -12 3 2 -22 -14 -7 -10
-6 -12 3 3 -21 -14 -7 -10
-6 -12 3 3 -21 -14 -7 -9
-6 -13 3 4 -20 -13 -6 -8
-6 -13 3 5 -19 -13 -6 -8
-6 -14 4 6 -18 -12 -5 -7
-6 -14 4 6 -18 -12 -5 -7
-6 -14 4 5 -18 -12 -5 -7
-6 -14 4 4 -18 -12 -5 -6
-6 -14 4 4 -18 -12 -5 -6
-6 -13 3 3 -18 -12 -5 -5
-6 -13 3 3 -18 -12 -5 -5
-5 -13 3 3 -17 -11 -5 -5
-4 -13 2 4 -16 -10 -4 -5
-4 -13 2 4 -16 -10 -4 -5
-3 -12 1 5 -15 -9 -3 -5
-2 -12 1 5 -15 -9 -3 -5
-2 -12 1 5 -15 -9 -3 -5
0 -12 1 6 -15 -9 -2 -4
1 -12 1 6 -15 -9 -2 -4
2 -11 0 7 -14 -9 0 -3
2 -11 0 7 -13 -8 1 -3
2 -11 0 8 -13 -8 1 -2
3 -10 0 9 -12 -7 2 0
3 -10 0 9 -11 -6 3 0
4 -9 1 10 -10 -5 4 1
6 -9 -2 10 -10 -5 4 1
7 -9 -3 10 -9 -4 4 1
8 -8 -5 9 -8 -3 4 2
10 -8 -7 9 -8 -3 4 2
11 -7 -8 8 -7 -2 5 3
12 -6 -9 8 -6 0 6 4
12 -6 -10 8 -5 1 7 5
13 -5 -12 9 -3 2 8 6
14 -4 -13 9 -2 3 9 7
15 -3 -14 10 0 4 10 8
17 -3 -16 9 1 4 11 9
19 -3 -18 8 1 4 12 10
21 -2 -20 7 2 4 13 11
23 -2 -22 6 3 4 14 12
24 0 -24 5 4 5 15 13
26 2 -25 5 4 6 16 14
27 3 -26 5 5 7 17 15
29 5 -27 4 6 9 18 17
31 7 -28 4 6 10 19 18
32 8 -29 3 7 11 20 19
32 8 -31 1 7 11 20 20
32 8 -32 -2 7 11 20 21
32 7 -33 -4 7 11 20 22
32 7 -35 -6 7 11 20 23
32 6 -36 -7 7 11 21 24
32 6 -36 -8 6 11 21 24
32 6 -36 -9 5 10 21 24
31 6 -36 -11 4 9 21 24
31 6 -36 -12 3 9 21 24
30 5 -37 -13 2 8 20 23
30 5 -37 -14 1 7 20 23
30 5 -37 -15 0 6 19 23
29 6 -36 -17 -3 4 18 23
29 6 -36 -18 -4 3 18 23
28 7 -35 -19 -5 2 17 22
26 7 -32 -19 -5 0 16 22
24 7 -30 -19 -6 -2 15 21
22 6 -28 -19 -7 -4 13 20
20 6 -26 -19 -7 -6 12 20
18 5 -23 -18 -8 -7 11 19
16 4 -21 -18 -10 -9 10 18
14 3 -19 -17 -11 -10 9 17
12 2 -16 -16 -13 -11 7 15
10 1 -14 -16 -15 -13 6 14
8 0 -12 -15 -16 -14 5 13
6 0 -10 -14 -16 -15 3 12
5 0 -8 -13 -17 -15 2 11
3 -2 -6 -12 -18 -16 0 9
1 -2 -4 -11 -18 -17 -3 8
0 -3 -2 -10 -19 -18 -4 7
0 -4 1 -10 -19 -18 -4 6
-2 -5 2 -9 -20 -18 -4 6
-3 -7 3 -8 -21 -19 -5 5
-3 -8 5 -8 -21 -19 -5 4
-4 -9 6 -7 -22 -20 -6 3
-5 -9 6 -7 -22 -20 -7 3
-5 -9 6 -7 -23 -20 -7 3
-6 -9 6 -7 -24 -21 -8 2
-7 -9 6 -7 -24 -21 -9 2
-8 -10 7 -6 -25 -22 -10 1
-8 -10 7 -6 -25 -22 -10 1
-8 -10 8 -6 -25 -22 -10 1
-8 -10 9 -6 -25 -22 -10 1
-8 -10 9 -6 -25 -22 -10 1
-8 -11 10 -5 -25 -23 -11 0
-8 -11 10 -5 -25 -23 -11 0
-8 -11 10 -5 -25 -23 -11 0
-9 -11 10 -6 -26 -23 -11 0
-9 -11 10 -6 -26 -23 -11 0
-10 -11 9 -7 -27 -24 -12 -2
-10 -11 9 -7 -27 -24 -12 -2
-10 -11 9 -7 -27 -24 -12 -2
-10 -11 9 -6 -27 -24 -12 -2
-10 -11 9 -6 -27 -24 -12 -2
-11 -10 9 -5 -26 -23 -12 -3
-11 -10 9 -4 -26 -23 -12 -3
-11 -10 9 -4 -26 -23 -12 -3
-11 -10 9 -3 -26 -23 -12 -3
-11 -10 9 -2 -26 -23 -12 -3
-11 -11 10 0 -25 -22 -12 -3
-11 -10 10 0 -25 -22 -12 -3
-11 -10 10 0 -25 -21 -12 -3
-11 -9 10 0 -24 -20 -11 -3
-11 -8 10 0 -24 -20 -11 -3
-11 -7 10 1 -23 -19 -10 -2
-11 -7 10 3 -23 -19 -10 -2
-11 -6 10 4 -22 -18 -10 -2
-10 -5 10 6 -21 -17 -10 -2
-10 -5 10 8 -21 -17 -10 -2
-9 -4 11 9 -20 -16 -9 -2
-9 -4 11 10 -20 -16 -9 -2
-9 -4 11 11 -20 -16 -9 -2
-9 -3 11 12 -20 -16 -8 -2
-9 -3 11 13 -20 -16 -8 -2
-8 -2 11 14 -19 -15 -7 0
-8 -2 11 14 -19 -14 -7 0
-8 -2 11 15 -18 -14 -7 0
-8 -3 11 16 -17 -13 -7 1
-8 -3 11 16 -17 -12 -7 1
-9 -4 11 17 -16 -11 -7 2
-9 -4 11 17 -16 -11 -7 2
-9 -4 11 17 -16 -11 -7 2
-9 -3 11 16 -15 -10 -7 2
-9 -3 11 16 -15 -10 -7 2
-8 -2 12 15 -14 -9 -6 1
-8 0 13 15 -13 -8 -6 1
-8 2 14 15 -13 -8 -5 1
-8 3 16 16 -12 -7 -4 2
-8 5 17 16 -11 -6 -4 2
-7 6 18 17 -10 -5 -3 3
-7 6 18 18 -10 -5 -3 3
-7 6 18 19 -10 -5 -2 4
-6 7 19 20 -9 -4 0 5
-6 7 19 21 -9 -4 0 5
-5 8 20 22 -8 -3 1 6
-5 8 20 22 -8 -3 1 6
-5 8 20 22 -8 -3 1 6
-5 9 21 22 -7 -3 1 6
-5 9 21 22 -7 -3 1 6
-4 10 22 23 -6 -2 2 5
-4 11 22 23 -6 -2 2 5
-4 12 22 23 -6 -2 2 5
-4 14 22 23 -6 -2 2 6
-4 15 22 23 -6 -2 2 6
-3 16 21 22 -6 0 3 7
-3 16 21 21 -6 0 3 7
-3 16 21 20 -6 0 3 7
-4 16 20 19 -6 0 3 7
-4 16 20 18 -6 0 3 7
-5 17 19 17 -7 -2 3 6
-3 18 19 17 -7 -2 3 6
0 19 19 17 -7 -2 3 7
2 21 19 17 -7 0 3 8
3 22 19 17 -7 0 3 8
5 23 18 16 -6 1 4 9
4 22 18 16 -6 1 4 9
4 22 17 16 -6 1 4 9
3 21 16 16 -6 2 4 9
2 20 16 16 -6 2 4 9
1 19 15 15 -5 3 4 9
1 16 14 14 -6 2 3 8
1 13 12 12 -7 1 1 6
1 11 11 11 -8 -2 0 5
1 8 9 9 -9 -3 -3 3
1 6 8 8 -10 -4 -4 2
1 4 8 7 -10 -4 -5 1
1 2 8 7 -11 -5 -5 0
1 0 7 6 -12 -6 -6 -2
1 -2 7 5 -12 -6 -7 -3
0 -4 6 4 -13 -7 -8 -4
-2 -4 6 3 -13 -7 -9 -4
-3 -5 5 2 -14 -8 -9 -5
-5 -6 4 0 -15 -9 -10 -6
-6 -6 4 -2 -15 -9 -11 -6
-7 -7 3 -3 -16 -10 -12 -7
-7 -8 3 -3 -16 -10 -12 -7
-7 -9 3 -3 -16 -9 -12 -7
-7 -10 3 -3 -15 -8 -12 -8
-7 -11 3 -3 -15 -8 -12 -8
-8 -12 2 -4 -14 -7 -12 -9
-8 -12 2 -4 -14 -7 -12 -9
-8 -12 2 -4 -14 -7 -12 -9
-9 -12 2 -5 -14 -7 -12 -9
-9 -12 2 -5 -14 -7 -12 -9
-10 -12 1 -6 -13 -8 -12 -9
-10 -12 1 -6 -13 -8 -12 -9
-10 -12 0 -6 -13 -8 -12 -9
-9 -12 -2 -6 -12 -7 -12 -10
-9 -12 -2 -6 -12 -7 -12 -10
-8 -11 -3 -6 -11 -6 -12 -11
-8 -11 -3 -6 -11 -6 -12 -11
-8 -11 -3 -6 -11 -6 -12 -11
-9 -11 -2 -6 -11 -7 -13 -11
-9 -11 -2 -6 -11 -7 -13 -11
-10 -12 0 -6 -12 -8 -14 -10
-10 -13 0 -6 -12 -8 -14 -10
-10 -13 0 -6 -12 -8 -14 -10
-9 -14 0 -6 -11 -8 -14 -11
-9 -15 0 -6 -11 -8 -14 -11
-8 -16 2 -5 -10 -7 -14 -12
-6 -16 6 2 -7 -5 -14 -12
-4 -16 10 8 -5 -3 -14 -12
-2 -15 14 13 -3 -2 -14 -13
1 -15 18 19 1 1 -14 -13
5 -11 23 28 7 7 -10 -12
11 -2 32 47 22 21 1 -6
17 8 40 64 36 35 11 1
24 18 49 81 52 49 21 8
30 27 58 100 67 63 31 14
36 40 64 115 84 79 45 24
42 59 64 126 106 101 63 40
48 78 65 136 128 122 82 58
53 97 65 146 150 144 102 74
58 116 66 157 172 165 121 91
59 130 63 155 184 178 134 103
49 127 50 126 171 167 128 102
38 123 35 96 158 155 122 101
28 120 21 66 145 144 117 100
17 117 8 36 133 133 111 99
5 107 -5 5 109 111 98 92
-12 84 -13 -32 63 66 66 70
-28 60 -21 -68 17 22 35 49
-46 36 -28 -105 -29 -22 5 27
-62 12 -36 -142 -76 -67 -27 6
-72 -7 -44 -164 -107 -97 -49 -11
-65 -14 -47 -154 -101 -93 -50 -16
-57 -22 -50 -144 -96 -88 -51 -21
-49 -29 -54 -134 -90 -83 -52 -26
-41 -36 -57 -123 -83 -79 -53 -31
-34 -43 -58 -112 -77 -73 -53 -35
-31 -41 -52 -99 -68 -65 -48 -33
-27 -40 -45 -85 -59 -57 -43 -30
-23 -39 -38 -71 -50 -48 -38 -28
-19 -37 -31 -57 -40 -39 -33 -26
-16 -36 -25 -45 -32 -32 -29 -24
-16 -34 -21 -38 -27 -28 -26 -22
-16 -32 -17 -31 -23 -24 -24 -20
-16 -30 -13 -24 -18 -20 -21 -19
-16 -28 -8 -17 -14 -15 -18 -17
-15 -26 -5 -12 -10 -12 -16 -15
-14 -24 -5 -11 -10 -12 -15 -15
-13 -22 -5 -11 -9 -11 -15 -14
-12 -21 -4 -10 -9 -11 -14 -14
-10 -19 -4 -9 -8 -10 -13 -13
-9 -17 -3 -8 -7 -9 -12 -12
-9 -17 -3 -7 -6 -9 -12 -12
-9 -17 -3 -6 -6 -9 -12 -12
-9 -17 -2 -5 -5 -8 -11 -12
-9 -17 -2 -4 -4 -8 -11 -12
-10 -16 0 -3 -3 -7 -10 -11
-10 -16 0 -3 -3 -7 -10 -11
-10 -15 0 -3 -3 -7 -10 -11
-10 -15 0 -3 -2 -6 -9 -11
-10 -14 0 -3 -2 -6 -9 -11
-9 -13 0 -2 0 -5 -8 -11
-9 -13 0 -2 0 -5 -8 -11
-9 -13 0 0 0 -5 -8 -11
-8 -14 1 0 0 -5 -7 -10
-8 -14 1 1 0 -5 -7 -10
-7 -15 2 2 1 -4 -6 -9
-7 -15 2 2 1 -4 -6 -9
-7 -15 1 2 1 -4 -5 -9
-7 -14 1 2 2 -4 -5 -8
-7 -14 0 2 2 -4 -4 -8
-6 -13 -2 1 3 -4 -3 -7
-6 -13 -2 1 3 -4 -3 -7
-6 -13 -2 1 4 -4 -3 -7
-6 -12 -2 2 4 -4 -3 -7
-6 -12 -2 2 5 -4 -3 -7
-6 -11 0 3 6 -3 -4 -7
-6 -11 0 3 6 -3 -4 -6
-5 -11 0 3 6 -2 -3 -6
-5 -11 0 4 7 -2 -3 -5
-4 -11 0 4 7 0 -2 -4
-3 -12 -2 5 8 1 0 -3
-3 -12 -2 5 8 1 0 -3
-3 -11 -2 5 8 1 0 -3
-4 -11 -2 5 8 1 0 -3
-4 -10 -2 5 8 1 0 -3
-5 -9 -2 6 9 1 1 -4
-4 -9 -3 6 9 1 1 -4
-3 -9 -3 6 9 2 1 -4
-2 -9 -4 6 10 2 1 -3
0 -9 -5 6 10 3 1 -3
1 -9 -6 6 11 4 2 -2
1 -9 -6 7 11 4 3 -2
2 -9 -6 7 11 5 3 -2
2 -9 -6 8 12 5 4 -2
3 -9 -6 9 12 6 5 -2
4 -9 -6 10 13 7 6 0
5 -8 -7 10 14 8 6 1
5 -7 -8 10 15 9 6 2
6 -6 -9 9 16 10 7 3
7 -5 -11 9 17 12 7 4
8 -4 -12 8 18 13 8 5
10 -4 -13 8 19 14 9 6
12 -4 -14 8 21 16 10 6
13 -4 -15 8 22 17 11 7
15 -4 -16 8 23 18 12 8
17 -5 -17 8 25 20 13 9
18 -4 -19 7 26 21 14 10
20 -2 -21 6 27 22 15 11
21 0 -24 5 28 23 16 12
22 1 -26 3 29 24 18 13
24 3 -28 2 30 25 19 14
26 4 -29 2 30 25 20 14
28 5 -30 2 31 26 21 15
29 6 -31 1 31 27 22 15
31 8 -33 1 32 28 24 16
33 9 -34 0 33 29 25 17
33 9 -35 -3 33 29 25 18
33 9 -37 -5 33 29 25 19
33 9 -38 -7 33 29 25 20
33 9 -39 -9 33 29 25 21
33 10 -41 -11 32 29 25 22
33 10 -41 -12 31 29 25 22
33 10 -41 -13 29 28 25 22
33 10 -41 -14 28 27 25 22
33 10 -41 -15 27 26 25 22
32 9 -41 -16 25 25 24 21
31 9 -41 -16 25 24 24 21
30 9 -40 -17 24 23 24 21
29 10 -40 -18 23 22 23 21
28 10 -39 -19 22 21 23 21
27 11 -38 -20 21 20 22 22
26 10 -36 -20 21 20 22 21
24 8 -34 -20 20 19 21 20
22 7 -31 -19 19 18 20 19
21 6 -29 -19 18 17 19 17
19 4 -27 -18 17 16 18 16
17 4 -25 -17 16 15 17 16
15 4 -23 -15 14 13 15 15
12 4 -20 -14 12 11 13 14
10 4 -18 -13 11 10 12 13
8 3 -16 -11 9 8 10 12
7 2 -14 -10 9 8 10 11
5 1 -12 -8 9 8 9 10
4 0 -9 -7 8 7 8 9
3 -2 -7 -6 8 7 7 7
1 -3 -5 -4 7 6 6 6
1 -3 -5 -4 6 6 5 5
0 -4 -4 -4 5 5 3 4
-2 -4 -3 -3 4 5 2 3
-3 -5 -2 -3 2 4 1 2
-4 -6 0 -2 1 3 -2 1
-4 -6 0 -2 1 3 -2 1
-4 -7 1 0 1 3 -2 1
-5 -8 2 1 1 3 -2 1
-5 -9 3 2 1 3 -2 1
-6 -10 4 3 2 4 -3 0
-6 -10 4 3 2 4 -3 0
-7 -10 4 3 1 4 -3 0
-8 -10 3 3 1 4 -3 -2
-9 -10 3 3 0 4 -3 -2
-10 -10 2 3 -2 3 -4 -3
-10 -10 2 3 -2 3 -4 -3
-10 -10 2 3 -2 3 -4 -3
-10 -10 2 3 -2 3 -5 -3
-10 -10 2 3 -2 3 -5 -3
-10 -9 3 4 -3 2 -6 -4
-10 -9 3 4 -3 2 -6 -4
-10 -9 3 4 -3 2 -6 -4
-10 -9 3 4 -3 2 -6 -4
-10 -9 3 4 -3 2 -6 -4
-10 -8 3 4 -4 1 -6 -3
-10 -8 3 4 -4 1 -6 -3
-10 -8 4 4 -4 1 -6 -3
-10 -8 4 5 -4 1 -6 -3
-10 -8 5 5 -4 1 -6 -3
-10 -8 6 6 -3 1 -6 -2
-10 -8 6 6 -3 1 -6 -2
-10 -7 5 6 -3 1 -6 -2
-10 -7 5 7 -3 2 -6 -2
-10 -6 4 7 -3 2 -6 -2
-10 -5 3 8 -2 3 -5 -3
-10 -5 3 8 -2 3 -5 -3
-10 -5 4 9 -2 3 -5 -3
-10 -5 4 10 -2 3 -5 -3
-10 -5 5 11 -2 3 -5 -3
-9 -5 6 12 -2 4 -5 -3
-9 -5 6 12 -2 4 -5 -3
-9 -5 5 12 -2 4 -5 -3
-9 -5 5 12 -2 4 -5 -3
-9 -5 4 12 -2 4 -5 -3
-8 -4 3 12 0 4 -5 -2
-8 -4 3 12 0 4 -5 -2
-8 -4 3 13 0 4 -5 -2
-8 -4 3 13 0 4 -5 -3
-8 -4 3 14 0 4 -5 -3
-8 -3 4 15 0 4 -4 -4
-8 -3 4 15 0 4 -4 -4
-8 -3 4 15 0 4 -4 -3
-8 -3 4 15 0 4 -4 -2
-8 -3 4 15 0 4 -4 0
-7 -4 3 16 0 4 -3 1
-7 -3 3 16 0 4 -3 1
-7 0 4 16 0 4 -2 1
-7 1 5 16 0 5 -2 1
-7 2 6 16 0 5 0 1
-6 4 7 17 0 6 1 0
-6 4 7 17 0 6 1 0
-6 5 8 17 0 7 1 0
-6 6 8 18 1 7 1 1
-6 7 9 18 1 8 1 1
-5 8 10 19 2 9 1 2
-5 8 10 19 2 9 1 2
-5 8 10 19 2 9 1 2
-5 8 11 19 2 9 2 2
-5 8 11 19 2 9 2 2
-4 9 12 18 3 9 3 2
-4 9 12 18 3 9 3 2
-4 9 13 18 3 9 3 2
-4 10 13 18 3 9 3 2
-4 10 14 18 3 9 3 2
-5 11 15 18 3 8 2 2
-5 11 15 18 3 8 2 2
-5 12 15 18 4 9 3 3
-5 12 15 18 4 9 3 4
-5 13 15 18 5 10 4 5
-5 14 16 19 6 11 5 6
-5 16 16 19 6 11 5 6
-5 17 16 19 6 11 5 6
-4 19 15 19 6 11 5 6
-4 21 15 19 6 11 5 6
-3 23 14 18 5 10 6 6
-2 23 14 18 5 10 6 6
0 23 14 18 5 10 6 6
1 23 14 18 6 10 7 7
2 23 14 18 6 10 7 7
4 23 14 19 7 11 8 8
4 21 13 17 6 10 7 7
3 18 12 15 4 8 6 6
3 16 11 13 2 6 5 5
2 14 10 11 1 5 4 4
1 11 8 9 -2 3 3 3
1 9 8 9 -2 3 2 2
1 7 8 9 -2 2 1 1
1 5 7 9 -3 1 0 0
1 3 7 9 -3 0 -2 -2
0 1 6 8 -4 -2 -4 -4
-2 0 6 7 -4 -2 -4 -4
-3 -2 6 6 -5 -3 -5 -5
-5 -4 6 5 -5 -4 -5 -5
-6 -5 6 4 -6 -5 -6 -6
-8 -7 5 2 -7 -6 -7 -7
-8 -7 5 2 -7 -6 -7 -7
-8 -8 5 1 -7 -7 -7 -7
-8 -9 5 1 -8 -7 -8 -8
-8 -10 5 0 -8 -8 -8 -8
-9 -11 4 -2 -9 -9 -9 -9
-9 -11 4 -2 -9 -9 -9 -9
-9 -11 4 -3 -9 -9 -9 -9
-9 -11 3 -3 -10 -9 -10 -10
-9 -11 3 -4 -10 -9 -10 -10
-9 -12 2 -5 -11 -10 -11 -11
-9 -12 2 -5 -11 -10 -11 -11
-9 -12 2 -5 -11 -10 -11 -11
-9 -12 2 -6 -11 -10 -11 -11
-9 -12 2 -6 -11 -10 -11 -11
-9 -12 1 -7 -11 -11 -11 -11
-9 -12 1 -7 -11 -11 -11 -11
-9 -12 1 -7 -11 -11 -11 -11
-9 -12 0 -7 -11 -11 -11 -11
-9 -12 0 -7 -11 -11 -11 -11
-8 -11 -2 -8 -11 -11 -12 -12
-8 -11 -2 -8 -11 -11 -12 -12
-8 -11 -2 -8 -11 -11 -12 -12
-8 -11 -2 -8 -11 -11 -12 -12
-8 -11 -2 -8 -11 -11 -12 -12
-8 -11 0 -8 -11 -11 -12 -12
-8 -11 0 -8 -11 -11 -12 -12
-8 -11 0 -8 -10 -11 -12 -12
-8 -12 0 -7 -10 -10 -12 -12
-8 -12 0 -7 -9 -10 -12 -12
-7 -13 0 -5 -8 -9 -13 -13
-3 -10 7 5 -3 -5 -13 -13
1 -7 14 15 3 1 -13 -13
5 -4 21 24 8 5 -13 -12
8 1 27 34 13 10 -13 -12
13 5 34 46 20 16 -12 -10
22 16 40 64 39 34 5 1
31 28 47 82 59 54 21 11
40 40 53 101 78 72 37 21
50 52 58 119 98 92 53 31
59 64 64 137 117 110 69 42
59 84 61 137 134 127 86 58
60 102 59 138 151 143 102 74
61 120 56 138 168 159 118 91
62 139 53 139 184 176 134 106
61 155 49 136 195 187 147 120
40 137 38 91 152 147 121 105
20 119 28 47 109 106 95 90
-2 101 17 2 66 66 69 74
-22 82 7 -43 23 25 43 59
-41 65 -4 -85 -18 -13 18 44
-46 47 -14 -99 -35 -31 2 28
-51 29 -24 -113 -53 -49 -15 14
-55 12 -34 -128 -70 -66 -30 -2
-60 -7 -45 -142 -87 -85 -47 -16
-64 -23 -54 -154 -103 -101 -62 -30
-56 -26 -54 -142 -95 -94 -60 -31
-48 -29 -53 -129 -86 -86 -58 -32
-39 -32 -52 -116 -77 -78 -56 -33
-31 -36 -51 -103 -69 -71 -54 -34
-23 -39 -50 -91 -61 -64 -51 -35
-21 -36 -44 -79 -54 -58 -47 -33
-18 -33 -36 -68 -46 -51 -44 -31
-16 -30 -30 -57 -38 -45 -39 -29
-14 -27 -23 -46 -31 -37 -35 -27
-11 -24 -17 -35 -24 -31 -31 -24
-11 -22 -14 -31 -21 -28 -29 -22
-10 -19 -12 -26 -17 -26 -26 -20
-9 -16 -9 -22 -14 -23 -23 -18
-8 -14 -6 -18 -11 -20 -21 -16
-7 -11 -3 -13 -7 -17 -18 -14
-7 -11 -3 -13 -7 -17 -18 -14
-7 -11 -3 -13 -7 -17 -18 -14
-6 -11 -3 -12 -6 -17 -19 -15
-6 -11 -3 -12 -6 -17 -19 -15
-5 -11 -3 -11 -5 -17 -20 -16
-5 -11 -3 -11 -5 -17 -20 -16
-4 -10 -3 -11 -4 -16 -19 -16
-4 -9 -3 -11 -3 -16 -19 -15
-3 -8 -3 -11 -2 -15 -18 -15
-2 -7 -3 -10 0 -14 -17 -14
-2 -7 -3 -10 0 -14 -17 -14
-2 -7 -3 -9 0 -14 -17 -14
-2 -7 -3 -9 1 -14 -17 -14
-2 -7 -3 -8 1 -14 -17 -14
-2 -7 -3 -7 2 -14 -18 -15
-2 -7 -3 -7 2 -14 -18 -15
-2 -7 -3 -7 3 -14 -18 -14
-2 -7 -2 -7 3 -14 -17 -14
-2 -7 -2 -7 4 -14 -17 -13
-3 -6 0 -6 5 -13 -16 -12
-3 -6 0 -6 5 -13 -16 -12
-2 -6 0 -6 5 -13 -16 -12
-2 -6 -2 -6 6 -13 -16 -12
0 -6 -2 -6 6 -13 -16 -12
1 -6 -3 -5 7 -13 -17 -13
1 -6 -3 -5 7 -13 -17 -13
1 -6 -3 -5 8 -13 -17 -12
1 -6 -3 -4 8 -13 -16 -11
1 -6 -3 -4 9 -13 -16 -10
1 -5 -2 -3 10 -13 -15 -9
1 -5 -2 -3 10 -13 -15 -9
1 -5 -2 -3 11 -13 -15 -9
1 -4 -2 -3 11 -13 -15 -9
1 -4 -2 -3 12 -13 -15 -9
2 -3 -2 -2 13 -12 -16 -9
2 -3 -2 -2 13 -12 -16 -9
3 -3 -3 -2 13 -12 -16 -9
3 -3 -3 -2 13 -12 -16 -9
4 -3 -4 -2 13 -12 -16 -9
5 -2 -5 0 14 -11 -15 -9
5 -2 -5 0 14 -11 -15 -9
6 -2 -5 0 15 -11 -15 -8
6 -2 -5 1 15 -10 -14 -8
7 -2 -5 1 16 -10 -14 -7
8 0 -6 2 17 -9 -13 -6
8 0 -6 2 17 -9 -13 -6
8 1 -7 2 18 -9 -12 -5
9 1 -7 3 19 -8 -11 -5
9 2 -8 3 20 -8 -10 -4
10 3 -9 4 21 -7 -9 -3
10 3 -9 4 22 -6 -9 -3
11 3 -10 5 23 -4 -8 -2
12 3 -11 5 24 -3 -7 -2
13 3 -12 6 25 0 -6 0
14 3 -13 7 27 2 -5 1
15 4 -15 6 27 2 -4 1
17 5 -17 5 28 3 -3 2
18 7 -20 4 29 3 -2 2
20 8 -22 3 30 4 0 3
22 10 -25 1 31 5 2 4
24 10 -26 1 31 6 2 4
26 11 -27 1 32 7 3 5
28 11 -29 0 33 8 3 5
30 12 -30 0 34 9 4 6
32 13 -32 -2 35 10 5 7
32 14 -33 -3 35 10 6 8
33 15 -35 -5 35 11 7 9
34 16 -37 -7 36 11 8 10
35 17 -39 -9 36 12 9 11
36 19 -41 -11 37 13 11 13
36 19 -41 -12 37 13 11 13
36 19 -41 -13 36 13 11 13
37 18 -43 -14 35 12 11 13
37 18 -43 -15 34 12 11 13
38 17 -44 -16 33 11 11 14
37 17 -44 -17 32 10 11 14
36 17 -44 -18 31 9 11 14
35 17 -44 -19 30 8 11 14
34 17 -44 -20 29 7 11 14
32 16 -45 -22 28 6 11 15
32 16 -45 -22 27 5 10 15
31 16 -44 -23 26 4 9 15
31 16 -44 -24 25 3 8 14
30 16 -43 -25 24 2 7 14
29 16 -41 -26 23 0 6 13
28 16 -38 -26 22 -2 5 12
26 15 -35 -25 21 -3 4 11
25 14 -32 -24 20 -4 3 10
23 13 -29 -23 19 -5 2 9
21 12 -26 -22 18 -6 0 7
19 11 -24 -21 18 -6 0 6
16 9 -21 -19 18 -5 -2 4
14 8 -19 -18 18 -5 -3 3
11 6 -16 -16 18 -4 -4 1
8 4 -13 -14 17 -3 -5 -2
7 4 -12 -13 17 -3 -6 -2
6 3 -10 -12 17 -3 -7 -2
5 3 -9 -11 17 -2 -8 -3
4 2 -7 -10 17 -2 -9 -3
3 1 -5 -8 16 0 -10 -4
1 1 -5 -8 16 0 -10 -5
-2 1 -5 -8 15 0 -11 -6
-3 0 -4 -8 15 -2 -11 -6
-5 0 -4 -8 14 -2 -12 -7
-7 0 -4 -8 14 -2 -12 -8
-8 -2 -3 -7 13 -3 -13 -9
-8 -2 -3 -7 12 -3 -13 -9
-7 -2 -2 -7 11 -4 -14 -10
-7 -2 -2 -7 10 -4 -14 -10
-7 -2 -2 -7 10 -4 -14 -10
-6 -3 0 -6 9 -5 -15 -11
-6 -4 1 -6 9 -5 -15 -11
-7 -5 1 -6 8 -5 -15 -11
-7 -6 2 -6 8 -5 -15 -11
-7 -7 2 -6 8 -5 -15 -11
-8 -8 3 -5 7 -5 -15 -11
-8 -7 3 -5 7 -5 -15 -11
-9 -7 3 -6 7 -5 -16 -11
-9 -6 3 -6 7 -5 -16 -11
-9 -6 3 -6 7 -5 -16 -11
-10 -5 4 -7 6 -6 -17 -12
-10 -5 4 -7 6 -6 -17 -12
-10 -5 4 -7 6 -6 -16 -12
-10 -5 4 -7 6 -6 -16 -12
-10 -5 4 -7 6 -6 -16 -12
-10 -6 4 -7 5 -5 -15 -11
-10 -6 4 -7 5 -5 -15 -11
-10 -5 4 -7 5 -4 -15 -11
-10 -5 4 -7 5 -4 -15 -11
-10 -5 4 -7 5 -4 -15 -11
-11 -4 5 -6 5 -3 -16 -12
-11 -4 5 -6 5 -3 -15 -12
-10 -4 5 -5 5 -2 -15 -11
-10 -4 5 -5 5 -2 -14 -11
-10 -4 5 -5 5 -2 -14 -11
-9 -5 5 -4 6 0 -13 -10
-9 -4 5 -4 6 0 -13 -10
-9 -3 5 -4 6 0 -13 -10
-9 -2 5 -4 6 0 -13 -10
-9 -2 5 -4 6 0 -13 -10
-8 0 5 -4 6 1 -13 -10
-8 0 5 -4 6 1 -13 -10
-7 0 5 -4 6 1 -13 -10
-7 0 5 -4 6 1 -13 -10
-7 0 5 -4 6 1 -13 -10
-6 0 4 -5 5 1 -12 -9
-6 0 4 -5 5 1 -12 -9
-6 0 5 -5 5 1 -12 -9
-6 0 5 -5 5 1 -12 -9
-6 0 5 -5 5 1 -12 -9
-7 0 6 -4 5 1 -12 -8
-7 0 6 -4 5 1 -12 -8
-8 0 6 -4 5 2 -12 -9
-8 0 6 -4 5 2 -12 -9
-8 0 6 -4 5 2 -12 -9
-9 0 5 -3 5 3 -12 -10
-8 1 6 -3 6 4 -11 -9
-8 2 6 -3 6 4 -10 -8
-7 3 7 -3 7 5 -9 -7
-7 4 7 -3 7 5 -8 -7
-6 5 8 -2 8 6 -7 -6
-6 5 9 0 8 6 -7 -5
-6 5 10 1 8 6 -6 -5
-6 5 11 2 8 6 -6 -4
-6 5 12 3 8 6 -6 -4
-7 6 13 4 9 6 -5 -3
-6 7 13 4 9 7 -5 -3
-5 8 13 4 9 7 -5 -3
-4 9 13 4 9 8 -5 -3
-4 10 13 4 9 8 -5 -3
-3 12 14 4 9 9 -5 -3
-3 13 15 5 9 9 -4 -2
-3 14 15 5 9 9 -3 -2
-3 15 16 6 9 9 -2 0
-3 16 16 6 9 9 0 0
-3 17 17 7 10 9 1 1
-3 18 17 6 10 9 1 1
-3 18 16 5 9 8 1 2
-3 19 16 4 9 8 1 2
-3 19 16 3 9 8 1 2
-3 21 15 2 8 7 0 3
-2 22 15 2 8 7 0 3
0 23 14 2 8 8 1 3
1 24 14 2 8 8 1 3
1 25 14 2 8 8 1 3
2 26 13 2 7 9 2 3
2 26 13 2 7 9 2 3
2 25 12 2 7 9 2 4
2 25 12 2 7 9 2 4
2 25 12 2 7 9 2 4
3 22 11 1 6 7 2 4
3 19 10 0 5 6 1 3
3 16 9 -2 4 5 0 2
3 13 8 -3 3 4 -2 1
3 10 7 -4 2 3 -3 0
3 8 6 -5 1 2 -4 -2
2 6 6 -6 0 1 -5 -3
1 4 6 -6 0 0 -5 -3
0 2 6 -7 -2 -2 -6 -4
-2 0 6 -7 -2 -3 -6 -4
-3 -3 5 -8 -3 -4 -7 -5
-4 -4 4 -8 -4 -4 -7 -6
-5 -5 4 -8 -5 -5 -8 -6
-6 -6 3 -8 -6 -5 -8 -7
-7 -7 3 -8 -7 -5 -8 -7
-8 -8 2 -9 -8 -6 -9 -8
-8 -9 2 -9 -9 -7 -10 -9
-9 -9 2 -9 -10 -8 -10 -9
-9 -10 2 -9 -11 -9 -11 -10
-9 -10 2 -9 -12 -10 -11 -10
-10 -11 1 -9 -13 -11 -12 -11
-10 -11 1 -9 -13 -11 -12 -11
-10 -11 1 -9 -13 -11 -12 -11
-10 -11 1 -9 -13 -11 -12 -11
-10 -11 1 -9 -13 -11 -12 -11
-10 -11 1 -8 -13 -11 -11 -11
-10 -11 1 -8 -13 -11 -11 -11
-10 -11 1 -8 -14 -11 -11 -11
-10 -11 1 -8 -14 -11 -11 -11
-10 -11 1 -8 -14 -11 -11 -11
-10 -11 1 -7 -15 -11 -10 -11
-10 -11 1 -7 -15 -11 -10 -11
-11 -11 1 -6 -15 -11 -10 -11
-11 -11 1 -6 -15 -11 -10 -11
-11 -11 1 -6 -15 -11 -10 -11
-12 -11 0 -5 -16 -12 -11 -11
-11 -11 0 -5 -16 -12 -11 -11
-11 -12 0 -5 -16 -12 -11 -11
-10 -12 0 -5 -16 -12 -11 -11
-10 -12 0 -5 -16 -12 -11 -11
-9 -13 1 -5 -17 -12 -11 -11
-8 -13 1 -2 -16 -11 -11 -11
-8 -13 1 1 -15 -11 -11 -11
-7 -13 1 3 -14 -10 -11 -11
-7 -13 1 5 -13 -10 -11 -11
-2 -9 7 17 -6 -3 -8 -11
4 -4 16 29 3 5 -4 -9
8 3 24 43 10 12 0 -8
13 8 33 56 17 19 4 -6
18 14 43 68 25 26 8 -5
26 27 48 87 46 46 24 9
34 42 53 105 67 67 43 23
43 55 59 123 89 89 61 36
51 69 64 142 111 109 79 51
60 84 69 160 133 131 97 65
59 95 64 157 140 139 107 76
55 105 57 149 145 145 116 87
52 116 50 141 150 151 126 97
49 128 43 133 156 157 135 108
46 138 35 125 161 163 144 118
24 122 29 82 120 123 119 103
1 101 23 36 72 77 88 84
-23 80 17 -10 24 31 57 63
-47 59 10 -57 -25 -16 26 43
-70 38 4 -103 -73 -62 -6 23
-70 23 -7 -113 -86 -74 -17 12
-66 10 -17 -118 -93 -82 -26 2
-63 -5 -28 -123 -100 -91 -34 -9
-59 -19 -39 -130 -107 -99 -44 -18
-55 -33 -50 -135 -114 -107 -52 -28
-50 -36 -50 -124 -108 -102 -52 -30
-44 -37 -47 -110 -99 -95 -49 -30
-38 -38 -44 -96 -91 -88 -45 -31
-33 -39 -41 -82 -81 -80 -41 -31
-27 -40 -38 -68 -73 -72 -38 -31
-25 -38 -33 -58 -66 -67 -34 -30
-23 -34 -27 -49 -61 -61 -30 -27
-21 -31 -21 -38 -55 -56 -27 -24
-20 -27 -16 -28 -49 -51 -23 -22
-18 -23 -10 -19 -43 -45 -19 -19
-17 -21 -8 -15 -40 -43 -17 -17
-16 -20 -6 -12 -38 -40 -15 -16
-15 -18 -4 -9 -36 -38 -13 -14
-14 -17 -2 -7 -34 -37 -11 -13
-13 -16 1 -4 -32 -35 -9 -12
-12 -15 2 -2 -31 -34 -8 -11
-11 -15 2 0 -30 -33 -8 -11
-10 -14 2 1 -30 -32 -7 -11
-9 -14 2 2 -29 -31 -7 -11
-9 -14 2 3 -29 -31 -7 -11
-8 -13 2 4 -28 -30 -6 -10
-8 -13 2 5 -27 -29 -5 -10
-9 -13 3 5 -27 -29 -5 -10
-9 -13 3 6 -26 -28 -4 -10
-9 -13 3 6 -26 -28 -4 -10
-10 -14 4 7 -25 -27 -3 -9
-9 -13 4 8 -25 -26 -3 -9
-8 -12 4 8 -25 -26 -3 -9
-7 -11 4 9 -25 -25 -3 -9
-7 -11 4 9 -25 -25 -3 -9
-6 -10 4 10 -24 -24 -3 -8
-6 -10 4 10 -24 -24 -3 -8
-6 -10 4 10 -23 -24 -2 -7
-6 -10 4 10 -23 -24 -2 -7
-6 -10 4 10 -23 -24 -2 -7
-5 -9 4 10 -22 -23 0 -6
-5 -9 4 10 -22 -23 0 -6
-5 -10 4 11 -22 -23 0 -6
-5 -10 4 11 -22 -23 0 -6
-5 -10 4 11 -22 -23 0 -6
-5 -11 5 12 -21 -23 1 -5
-5 -11 5 12 -20 -23 1 -5
-5 -10 5 12 -20 -22 1 -5
-5 -10 5 12 -19 -22 1 -5
-5 -10 5 12 -19 -22 1 -5
-5 -9 5 13 -18 -21 2 -6
-5 -9 5 14 -17 -20 2 -6
-4 -10 4 14 -17 -19 2 -6
-4 -10 4 15 -16 -18 2 -6
-4 -10 4 15 -16 -17 2 -6
-2 -10 3 16 -15 -16 3 -5
0 -9 3 16 -15 -16 4 -5
1 -8 2 16 -15 -16 4 -5
3 -6 2 16 -15 -16 5 -5
4 -5 2 16 -15 -16 5 -5
5 -4 1 17 -13 -15 6 -4
5 -4 1 17 -12 -13 7 -3
5 -5 1 18 -11 -12 8 -2
5 -5 1 18 -9 -11 9 0
5 -5 1 18 -8 -10 9 0
5 -6 2 19 -7 -9 10 1
7 -6 1 19 -7 -8 10 1
8 -5 0 19 -7 -8 10 1
9 -5 -2 19 -7 -7 10 1
10 -5 -3 19 -7 -7 10 1
11 -4 -5 19 -5 -5 11 1
12 -3 -6 19 -3 -4 12 2
13 -2 -7 19 0 -3 13 2
14 0 -9 19 2 0 14 3
15 0 -10 19 4 1 14 3
17 1 -12 19 5 2 15 4
18 1 -13 18 7 3 17 5
19 1 -15 18 8 4 18 6
21 1 -17 17 9 5 19 7
22 1 -18 17 10 6 20 8
24 2 -20 15 11 7 21 9
25 2 -22 14 12 8 22 11
26 2 -24 12 13 9 23 12
28 2 -26 10 14 10 24 13
29 2 -28 9 14 11 25 14
30 4 -30 7 15 12 26 15
31 6 -31 5 15 12 26 15
32 8 -32 3 14 12 26 15
33 9 -34 2 14 12 26 15
33 11 -35 0 14 12 26 15
34 11 -36 -2 13 11 27 16
34 9 -36 -3 13 11 27 16
33 7 -36 -4 12 10 27 16
33 6 -36 -5 12 10 27 16
33 4 -36 -6 12 10 27 16
32 3 -35 -7 11 9 26 17
31 4 -34 -8 10 8 26 17
30 4 -34 -9 10 7 25 17
29 5 -33 -10 9 6 25 17
29 5 -33 -10 9 6 25 17
28 6 -32 -11 8 5 24 16
27 6 -30 -11 7 5 24 16
26 6 -29 -11 7 4 24 16
25 6 -28 -11 6 4 24 16
25 6 -27 -11 6 4 24 16
23 6 -25 -10 5 2 23 14
20 6 -22 -9 3 1 21 13
18 5 -20 -9 2 0 19 11
15 5 -17 -8 1 -3 18 9
13 5 -15 -8 0 -4 16 8
11 4 -13 -6 -2 -5 15 7
10 2 -11 -5 -2 -5 14 7
9 1 -8 -3 -2 -6 13 6
7 0 -6 0 -2 -6 12 6
6 -2 -4 1 -2 -6 11 6
4 -3 -3 2 -3 -7 10 4
2 -4 0 2 -4 -7 9 3
0 -5 1 2 -4 -8 8 1
-3 -6 2 2 -5 -8 7 -2
-5 -7 3 2 -5 -8 7 -3
-6 -8 4 3 -6 -9 6 -4
-6 -9 6 3 -7 -10 5 -5
-6 -10 7 4 -7 -10 4 -6
-6 -11 8 4 -8 -11 3 -7
-6 -11 9 4 -8 -11 2 -7
-7 -12 10 5 -9 -12 1 -8
-7 -12 10 5 -9 -12 1 -8
-8 -12 10 5 -10 -12 1 -8
-8 -12 10 5 -10 -12 1 -8
-8 -12 10 5 -10 -12 1 -8
-9 -13 9 6 -11 -13 0 -9
-9 -13 9 6 -11 -13 0 -9
-9 -13 9 6 -11 -13 0 -9
-9 -13 9 6 -11 -13 0 -9
-9 -13 9 6 -11 -13 0 -9
-10 -12 10 5 -10 -12 0 -10
-10 -12 10 5 -10 -12 0 -10
-10 -12 11 5 -10 -11 0 -10
-10 -12 11 5 -10 -11 0 -10
-10 -12 11 5 -10 -11 0 -10
-11 -12 12 6 -9 -10 0 -10
-11 -12 12 6 -9 -10 0 -10
-11 -12 12 6 -9 -10 0 -10
-11 -12 12 6 -9 -10 0 -10
-11 -12 12 6 -9 -10 0 -10
-12 -12 12 7 -8 -10 0 -9
-12 -12 12 7 -8 -9 0 -9
-12 -12 12 7 -7 -9 0 -9
-12 -12 12 7 -7 -8 0 -9
-12 -12 12 7 -7 -8 0 -9
-11 -11 13 7 -6 -7 0 -10
-11 -11 13 8 -6 -7 0 -10
-12 -12 13 8 -6 -6 0 -9
-12 -12 13 9 -6 -6 0 -9
-12 -12 13 9 -6 -6 0 -9
-13 -13 14 10 -5 -5 1 -8
-12 -13 14 10 -5 -5 1 -8
-12 -12 14 10 -5 -5 1 -8
-11 -12 14 10 -5 -5 1 -8
-11 -12 14 10 -5 -5 1 -8
-10 -11 14 10 -4 -5 2 -8
-10 -11 14 10 -3 -5 2 -8
-10 -11 14 11 -3 -4 3 -7
-10 -11 14 11 -2 -4 3 -7
-10 -11 14 11 -2 -4 3 -7
-10 -11 14 12 0 -3 4 -6
-10 -11 14 12 0 -3 4 -6
-10 -11 14 12 0 -3 4 -6
-10 -11 14 12 0 -3 4 -6
-10 -11 14 12 0 -3 4 -6
-10 -9 13 13 0 -2 4 -6
-10 -6 13 13 0 -2 4 -6
-10 -3 13 13 -2 -3 4 -6
-10 1 13 13 -2 -3 4 -6
-10 5 13 13 -2 -3 4 -6
-9 7 12 12 -3 -4 3 -7
-9 8 13 12 -3 -4 3 -7
-9 9 14 13 -2 -4 3 -7
-9 11 14 13 -2 -4 3 -7
-9 12 15 13 -2 -4 3 -7
-9 13 16 14 0 -3 3 -7
-9 13 16 14 0 -3 3 -7
-9 13 16 14 0 -3 3 -7
-9 13 16 14 0 -3 3 -7
-9 13 16 14 0 -3 3 -7
-8 13 16 14 0 -2 3 -6
-8 14 16 14 1 -2 3 -6
-7 15 17 14 1 0 3 -5
-7 16 17 14 2 0 3 -5
-7 17 17 14 2 0 3 -5
-6 18 18 14 3 1 4 -4
-6 19 18 14 3 1 4 -4
-6 20 18 14 3 1 5 -3
-6 20 18 14 3 1 5 -3
-6 21 18 14 3 1 5 -3
-5 22 19 15 2 2 6 -2
-5 22 19 15 2 3 7 0
-5 22 19 15 2 3 7 0
-5 22 19 15 2 4 8 1
-5 22 19 15 2 4 8 1
-6 21 19 14 3 5 9 2
-5 21 19 14 3 5 9 2
-4 22 18 14 3 5 9 3
-4 22 18 14 3 5 9 3
-3 22 18 14 3 5 9 3
-2 23 17 15 4 6 9 4
-2 23 15 13 3 5 9 3
0 23 14 12 2 5 9 2
0 23 13 10 2 4 9 2
0 23 12 9 1 4 9 1
1 21 11 8 0 3 9 0
0 17 11 7 0 2 7 -2
0 14 10 6 -2 1 6 -3
-2 10 10 5 -2 0 4 -3
-2 7 10 4 -2 -2 3 -4
-3 5 9 3 -3 -3 2 -5
-4 3 8 2 -5 -4 0 -6
-5 2 8 1 -6 -5 -2 -7
-5 0 7 0 -8 -6 -3 -7
-6 -2 7 -2 -9 -7 -4 -8
-7 -3 6 -3 -10 -8 -5 -9
-7 -4 6 -3 -10 -9 -5 -9
-8 -4 5 -4 -11 -9 -6 -10
-8 -5 5 -4 -11 -10 -6 -10
-8 -5 5 -4 -11 -10 -6 -10
-9 -6 4 -5 -12 -11 -7 -11
-9 -7 4 -5 -12 -11 -7 -11
-9 -8 4 -5 -12 -11 -8 -11
-9 -8 4 -5 -12 -11 -8 -11
-9 -9 4 -5 -12 -11 -8 -11
-10 -10 3 -5 -11 -10 -9 -10
-10 -10 3 -5 -11 -10 -9 -10
-10 -11 2 -6 -12 -11 -10 -11
-10 -11 2 -6 -12 -11 -10 -11
-10 -11 2 -6 -12 -11 -10 -11
-11 -12 1 -7 -13 -12 -11 -12
-11 -12 1 -7 -13 -12 -11 -12
-11 -12 1 -6 -13 -11 -10 -11
-11 -12 1 -6 -13 -11 -10 -11
-11 -12 1 -6 -13 -11 -10 -11
-10 -13 1 -5 -13 -10 -9 -10
-10 -14 1 -6 -13 -11 -9 -10
-10 -14 1 -6 -13 -12 -10 -10
-10 -15 1 -7 -13 -13 -10 -10
-10 -15 1 -7 -13 -14 -10 -10
-10 -16 0 -8 -14 -15 -11 -11
-10 -16 0 -8 -14 -15 -11 -11
-9 -17 0 -8 -14 -15 -11 -11
-9 -17 0 -8 -14 -15 -11 -11
-9 -17 0 -8 -14 -15 -11 -11
-7 -18 2 -4 -13 -14 -11 -11
-6 -18 7 4 -12 -13 -11 -12
-4 -19 11 11 -10 -12 -11 -12
-3 -19 16 17 -9 -12 -11 -13
0 -19 20 24 -7 -11 -11 -13
6 -13 26 39 6 1 -3 -9
14 -2 34 58 22 17 9 -2
22 9 42 76 39 32 20 7
30 20 49 95 56 49 31 14
38 31 56 113 73 64 43 22
44 48 59 125 93 84 59 36
49 68 60 134 114 105 78 54
53 88 61 142 135 127 98 70
58 107 61 150 155 148 117 88
62 127 62 159 177 170 137 105
56 129 57 141 169 162 136 109
43 119 47 108 146 141 123 105
29 111 35 74 122 119 110 101
16 102 25 42 99 97 97 97
3 93 15 8 75 75 85 93
-11 76 5 -25 43 44 62 77
-25 55 -5 -57 5 7 35 56
-39 34 -14 -90 -32 -29 9 35
-53 13 -23 -122 -70 -66 -18 14
-67 -8 -32 -155 -108 -102 -46 -7
-67 -20 -38 -160 -118 -112 -55 -17
-60 -26 -43 -150 -112 -108 -55 -20
-52 -32 -47 -140 -106 -103 -55 -24
-44 -39 -51 -131 -100 -98 -55 -27
-35 -46 -55 -120 -94 -93 -55 -30
-30 -48 -54 -109 -87 -87 -53 -31
-27 -47 -48 -97 -78 -79 -49 -30
-23 -45 -43 -85 -70 -72 -45 -28
-20 -44 -36 -72 -63 -65 -40 -26
-17 -41 -30 -60 -55 -58 -36 -24
-15 -39 -26 -51 -50 -53 -33 -22
-14 -37 -22 -44 -45 -49 -30 -20
-13 -34 -17 -36 -39 -45 -27 -18
-13 -32 -13 -29 -35 -40 -24 -16
-12 -29 -9 -22 -30 -36 -21 -14
-11 -28 -7 -19 -28 -34 -20 -13
-11 -26 -7 -18 -27 -33 -19 -13
-11 -25 -6 -16 -26 -32 -18 -12
-11 -23 -5 -15 -26 -31 -18 -12
-11 -22 -5 -14 -25 -30 -17 -12
-10 -21 -4 -13 -24 -29 -16 -11
-9 -21 -3 -12 -23 -28 -15 -10
-7 -21 -2 -10 -21 -26 -14 -9
-6 -21 -2 -9 -20 -25 -14 -8
-5 -21 0 -8 -19 -24 -13 -7
-4 -21 1 -7 -18 -23 -12 -6
-4 -21 1 -7 -18 -23 -12 -6
-4 -20 0 -7 -18 -24 -12 -6
-4 -20 0 -7 -18 -24 -12 -6
-4 -20 0 -7 -18 -24 -12 -6
-5 -19 -2 -8 -19 -25 -12 -7
-5 -19 -2 -7 -18 -25 -12 -7
-4 -19 -2 -6 -17 -25 -11 -7
-4 -19 -2 -6 -17 -25 -11 -7
-4 -19 -2 -5 -16 -25 -11 -7
-3 -20 0 -4 -15 -25 -10 -6
-3 -19 0 -4 -15 -25 -10 -6
-2 -18 0 -5 -15 -24 -10 -5
0 -18 0 -5 -15 -24 -10 -4
0 -17 0 -5 -15 -24 -10 -4
1 -16 0 -6 -15 -23 -10 -3
1 -16 0 -6 -15 -23 -10 -3
1 -16 0 -5 -15 -23 -9 -3
1 -16 0 -5 -15 -23 -9 -3
1 -16 0 -5 -15 -23 -9 -3
1 -17 0 -4 -14 -24 -8 -3
1 -17 0 -4 -14 -24 -8 -3
2 -17 0 -3 -13 -23 -8 -2
2 -17 0 -2 -12 -23 -8 -2
2 -17 0 -2 -12 -23 -8 -2
3 -18 -2 0 -11 -22 -7 0
3 -18 -2 0 -11 -22 -7 0
4 -17 -2 0 -11 -21 -6 0
4 -17 -2 0 -11 -21 -6 0
4 -17 -2 0 -11 -21 -6 0
5 -16 -2 1 -10 -20 -5 0
5 -16 -3 1 -10 -20 -5 1
6 -16 -4 1 -9 -19 -4 2
6 -16 -4 1 -8 -19 -4 2
6 -16 -5 1 -8 -19 -4 3
7 -16 -6 1 -7 -18 -3 4
7 -16 -6 1 -6 -18 -3 4
8 -16 -6 2 -5 -17 -2 4
9 -16 -6 3 -5 -17 -2 4
9 -16 -6 3 -4 -17 -2 4
10 -15 -5 4 -3 -16 0 5
11 -14 -7 4 0 -15 1 5
13 -13 -8 4 1 -14 2 6
14 -13 -10 4 3 -14 3 6
15 -12 -11 4 4 -13 4 6
16 -11 -12 5 5 -12 5 7
17 -11 -14 5 6 -11 6 8
18 -10 -15 5 7 -10 7 10
18 -9 -17 5 8 -9 7 11
19 -9 -18 5 9 -8 8 12
20 -8 -20 4 10 -7 9 13
22 -8 -22 4 11 -6 10 14
24 -7 -24 3 12 -4 12 15
25 -6 -26 3 13 -3 13 15
27 -6 -29 3 14 -2 14 16
29 -5 -30 2 15 0 15 17
30 -5 -30 1 16 1 17 18
32 -4 -31 0 17 2 18 19
34 -3 -32 0 18 3 20 20
36 -3 -32 -2 19 4 21 21
37 -2 -34 -4 20 5 22 22
37 -2 -36 -6 19 4 22 22
37 0 -38 -8 17 3 21 22
37 0 -40 -10 16 3 21 22
37 0 -43 -13 15 2 21 22
37 1 -44 -14 14 1 20 22
37 1 -44 -15 14 1 20 22
37 1 -43 -16 13 0 20 23
37 1 -43 -16 13 -2 20 23
37 1 -43 -17 13 -2 20 23
36 1 -41 -18 12 -3 20 24
35 1 -40 -19 11 -4 20 24
34 1 -39 -20 10 -6 19 24
34 1 -38 -20 9 -7 19 24
33 1 -37 -21 8 -8 19 24
31 2 -35 -22 7 -9 18 24
29 1 -33 -22 7 -9 17 23
27 0 -31 -21 6 -10 16 22
25 0 -29 -20 6 -11 16 22
22 -2 -26 -20 6 -11 15 21
21 -3 -24 -19 5 -12 14 20
19 -4 -22 -18 3 -13 12 19
17 -5 -19 -17 2 -15 10 17
16 -6 -17 -16 1 -16 9 16
14 -7 -15 -15 -2 -17 7 15
13 -8 -12 -14 -3 -18 6 14
11 -8 -11 -13 -4 -19 4 12
9 -8 -9 -12 -5 -20 2 10
8 -8 -7 -12 -6 -20 1 9
6 -8 -5 -11 -7 -21 -2 7
5 -9 -4 -10 -8 -22 -3 6
4 -10 -2 -9 -8 -22 -3 6
3 -11 0 -8 -8 -22 -3 5
2 -11 1 -7 -8 -22 -3 5
1 -12 3 -6 -8 -22 -3 5
0 -13 4 -5 -9 -22 -3 4
-2 -13 4 -5 -9 -22 -4 4
-3 -14 5 -4 -10 -23 -5 3
-3 -15 5 -3 -10 -24 -6 2
-4 -15 5 -3 -10 -24 -7 2
-5 -16 6 -2 -11 -25 -8 1
-5 -16 6 -2 -11 -25 -8 1
-5 -17 6 -3 -12 -26 -9 0
-5 -17 6 -4 -13 -27 -10 0
-5 -17 6 -4 -13 -27 -10 0
-4 -18 6 -5 -14 -28 -11 -2
-4 -18 6 -5 -14 -28 -11 -2
-5 -18 7 -4 -14 -28 -11 -2
-6 -18 8 -4 -14 -28 -11 -2
-6 -18 8 -4 -14 -28 -11 -2
-7 -18 9 -3 -14 -27 -10 -3
-7 -17 9 -3 -14 -27 -10 -3
-7 -16 9 -2 -13 -26 -10 -3
-7 -16 9 -2 -13 -26 -10 -3
-7 -15 9 -2 -13 -26 -10 -3
-7 -14 8 0 -12 -25 -9 -2
-7 -14 8 0 -12 -25 -9 -2
-7 -14 8 0 -12 -24 -9 -2
-7 -14 8 0 -12 -24 -9 -2
-7 -14 8 0 -12 -24 -9 -2
-6 -13 9 1 -12 -23 -9 -2
-6 -13 9 1 -12 -22 -9 -2
-6 -13 9 2 -12 -21 -9 -2
-6 -13 9 2 -12 -21 -9 -2
-6 -13 9 2 -12 -20 -9 -2
-6 -14 9 3 -11 -19 -8 0
-6 -13 9 3 -11 -19 -8 0
-6 -12 9 3 -10 -18 -8 0
-6 -11 9 3 -9 -18 -8 0
-6 -10 9 3 -9 -18 -8 0
-5 -9 10 4 -8 -17 -9 0
-5 -8 10 4 -8 -17 -9 0
-5 -7 9 4 -7 -16 -9 -2
-5 -7 9 4 -7 -16 -9 -2
-5 -6 9 4 -7 -16 -9 -2
-6 -5 8 3 -6 -15 -8 -3
-5 -4 8 3 -6 -15 -8 -3
-4 -3 8 3 -6 -15 -8 -3
-4 -3 8 3 -6 -15 -8 -3
-3 -2 8 3 -6 -15 -8 -3
-2 0 9 4 -5 -15 -9 -3
-2 0 9 4 -5 -15 -9 -3
-2 0 9 4 -5 -15 -9 -2
-2 0 9 4 -5 -15 -9 -2
-2 0 9 4 -5 -15 -9 -2
-3 0 10 4 -5 -15 -8 0
-3 0 10 4 -4 -14 -8 0
-3 0 11 5 -3 -12 -7 0
-3 0 12 6 -3 -11 -6 0
-3 0 12 6 -2 -10 -6 0
-3 1 13 7 0 -9 -5 1
-3 1 13 7 0 -9 -5 1
-3 2 14 8 1 -8 -4 1
-3 2 14 8 2 -8 -3 1
-3 2 14 8 2 -8 -3 1
-2 3 15 9 3 -7 -2 2
-2 5 15 9 3 -7 -2 2
-2 7 15 10 3 -7 -2 2
-2 9 15 11 3 -7 -2 2
-2 11 15 11 3 -7 -2 2
-2 12 16 12 4 -6 -2 3
-2 12 17 12 4 -5 0 3
0 12 18 12 5 -4 1 4
0 12 18 12 6 -3 1 4
0 12 19 12 6 -2 2 4
1 13 20 12 7 0 3 5
1 14 20 12 7 0 3 5
1 15 19 12 6 0 3 5
1 15 19 12 6 0 3 5
1 16 19 12 6 0 3 5
0 17 18 12 5 -2 3 5
0 18 18 12 5 -2 3 6
1 19 18 12 5 0 3 6
2 20 17 12 5 1 3 7
2 21 17 12 5 1 3 8
3 22 16 12 6 2 4 9
3 22 16 12 6 2 4 9
3 22 16 12 6 2 4 9
3 22 16 12 6 2 4 9
3 22 16 12 6 2 4 9
4 21 15 13 7 2 5 8
4 19 13 13 6 2 5 8
4 16 12 12 5 1 4 7
3 13 11 11 4 0 3 6
3 11 9 11 3 0 3 6
2 8 8 10 2 -2 2 5
2 6 8 9 1 -3 1 4
2 4 7 9 0 -3 0 3
2 2 6 8 -2 -4 -3 1
2 0 6 7 -3 -5 -4 0
3 -3 5 6 -4 -6 -5 -2
1 -4 5 5 -4 -6 -5 -3
-2 -5 5 5 -4 -6 -6 -3
-4 -7 5 4 -5 -6 -7 -4
-6 -8 5 3 -5 -6 -7 -5
-7 -9 5 2 -6 -7 -8 -6
-7 -9 5 1 -6 -8 -8 -6
-7 -9 4 1 -7 -8 -9 -7
-7 -10 3 0 -8 -9 -10 -8
-7 -10 3 -2 -8 -10 -10 -8
-7 -11 2 -3 -9 -11 -11 -9
-7 -11 2 -3 -9 -11 -11 -9
-7 -11 2 -3 -9 -11 -11 -9
-8 -12 2 -3 -9 -10 -11 -9
-8 -12 2 -3 -9 -10 -11 -9
-9 -13 1 -4 -10 -9 -12 -10
-9 -13 1 -4 -10 -9 -12 -10
-9 -13 1 -4 -10 -9 -12 -10
-9 -13 1 -4 -11 -9 -12 -10
-9 -13 1 -4 -11 -9 -12 -10
-9 -13 0 -5 -12 -10 -12 -11
-9 -13 0 -5 -12 -10 -12 -11
-9 -13 0 -5 -12 -10 -12 -11
-9 -14 0 -5 -12 -10 -12 -11
-9 -14 0 -5 -12 -10 -12 -11
-10 -15 -2 -6 -13 -10 -13 -11
-10 -15 -2 -6 -13 -10 -13 -11
-10 -15 -2 -6 -13 -9 -13 -11
-10 -16 -2 -6 -13 -8 -13 -11
-10 -16 -2 -6 -13 -8 -13 -11
-9 -17 -2 -7 -13 -7 -13 -10
-9 -17 -2 -6 -13 -7 -13 -10
-9 -18 -2 -6 -12 -7 -13 -10
-9 -19 0 -5 -11 -6 -13 -10
-9 -19 0 -4 -11 -6 -13 -10
-7 -18 4 3 -8 -3 -12 -11
-3 -14 12 14 -2 4 -10 -10
2 -9 20 25 4 9 -8 -10
6 -4 28 37 10 15 -5 -9
9 2 36 49 15 20 -3 -8
15 10 44 64 28 33 7 -2
23 22 50 82 49 54 22 10
32 34 55 102 70 74 38 21
40 47 61 120 92 95 55 33
49 59 66 139 112 115 71 45
54 72 67 149 130 133 86 58
54 89 60 145 141 145 99 72
54 104 53 141 152 157 112 87
54 120 46 137 164 171 126 101
54 136 37 133 176 183 138 115
45 137 30 109 162 172 134 116
23 117 21 63 117 129 106 99
2 98 12 16 71 86 78 80
-20 78 4 -30 25 44 50 63
-43 59 -6 -77 -21 1 22 46
-55 42 -15 -108 -53 -29 1 30
-58 25 -24 -118 -66 -44 -13 17
-60 9 -34 -129 -79 -57 -25 5
-62 -7 -45 -140 -93 -70 -38 -9
-64 -23 -54 -150 -105 -83 -51 -21
-63 -32 -59 -150 -110 -89 -58 -29
-55 -35 -56 -136 -101 -79 -56 -30
-48 -37 -54 -121 -92 -71 -53 -30
-39 -39 -51 -107 -82 -63 -51 -31
-31 -41 -48 -93 -73 -54 -48 -32
-26 -43 -44 -79 -65 -47 -45 -32
-24 -40 -36 -69 -58 -39 -40 -30
-22 -38 -30 -58 -51 -33 -36 -27
-20 -35 -24 -48 -45 -27 -32 -25
-19 -33 -17 -36 -37 -20 -28 -22
-17 -30 -13 -29 -33 -15 -25 -20
-17 -28 -11 -26 -30 -13 -23 -19
-16 -25 -9 -23 -28 -10 -21 -19
-15 -23 -7 -20 -26 -8 -19 -18
-15 -20 -6 -17 -24 -5 -18 -17
-14 -18 -4 -15 -22 -3 -16 -16
-14 -18 -4 -14 -21 -2 -16 -16
-13 -18 -4 -13 -21 0 -15 -15
-12 -18 -4 -11 -20 2 -14 -14
-12 -18 -4 -10 -19 3 -14 -14
-11 -19 -3 -9 -18 4 -13 -13
-11 -19 -3 -9 -18 4 -13 -13
-11 -19 -3 -9 -18 4 -13 -13
-11 -18 -2 -9 -18 4 -12 -13
-11 -18 -2 -9 -18 4 -12 -13
-10 -17 0 -8 -18 5 -11 -12
-10 -17 0 -8 -17 5 -11 -12
-10 -17 0 -8 -17 6 -11 -12
-10 -17 0 -7 -16 7 -11 -12
-10 -17 0 -7 -15 7 -11 -12
-11 -17 0 -6 -14 8 -10 -11
-11 -16 0 -6 -14 8 -10 -11
-10 -15 0 -6 -14 8 -10 -11
-9 -14 0 -6 -14 9 -10 -11
-9 -13 0 -6 -14 9 -10 -11
-8 -12 1 -7 -15 10 -9 -11
-8 -12 1 -7 -15 10 -9 -11
-8 -12 1 -7 -15 10 -9 -11
-8 -12 1 -7 -15 11 -8 -11
-8 -12 1 -7 -15 11 -8 -11
-8 -13 0 -6 -14 12 -7 -10
-8 -13 0 -6 -14 12 -7 -10
-8 -13 0 -6 -13 12 -7 -10
-8 -13 0 -6 -12 13 -6 -9
-8 -13 0 -6 -12 13 -6 -9
-8 -14 0 -5 -11 14 -5 -8
-8 -14 0 -5 -11 14 -5 -8
-7 -14 0 -5 -11 14 -5 -8
-6 -14 0 -5 -10 14 -4 -8
-6 -14 0 -5 -10 14 -4 -8
-5 -13 -2 -4 -9 15 -3 -9
-5 -13 -2 -4 -9 15 -3 -9
-5 -13 -2 -4 -9 15 -3 -9
-5 -12 -2 -4 -9 16 -3 -9
-5 -12 -2 -4 -9 16 -3 -9
-6 -11 -3 -5 -9 17 -3 -8
-5 -11 -3 -5 -9 17 -3 -8
-4 -11 -3 -5 -9 18 -3 -8
-3 -11 -4 -5 -8 19 -2 -8
-2 -11 -4 -5 -8 19 -2 -8
0 -10 -5 -4 -7 20 0 -8
0 -10 -5 -4 -6 21 1 -7
0 -10 -5 -4 -5 22 3 -6
0 -10 -5 -4 -3 24 4 -5
0 -10 -5 -4 -2 25 6 -4
0 -10 -6 -3 0 26 7 -3
2 -9 -7 -3 0 26 7 -3
4 -9 -9 -4 0 26 7 -3
6 -8 -10 -5 1 26 7 -3
7 -7 -12 -5 1 26 7 -3
9 -6 -13 -6 2 27 7 -3
10 -5 -15 -6 3 29 9 -2
12 -5 -16 -6 5 30 11 0
13 -4 -18 -6 6 32 13 2
15 -3 -20 -6 8 34 14 3
16 -2 -21 -6 9 35 16 4
18 -2 -22 -6 10 36 17 5
19 0 -24 -6 11 37 17 6
21 1 -25 -6 12 38 18 8
22 1 -27 -6 13 39 19 9
24 2 -28 -5 14 40 20 10
24 2 -29 -6 14 40 21 11
24 2 -31 -7 14 40 22 11
25 3 -32 -8 14 40 23 12
25 3 -34 -9 14 40 24 13
26 4 -35 -10 14 42 25 14
26 4 -35 -12 13 40 25 14
26 4 -36 -13 12 40 25 14
26 5 -37 -15 10 39 25 13
26 5 -37 -16 9 38 25 13
26 6 -38 -18 8 37 24 12
26 6 -38 -19 8 37 24 12
26 7 -37 -19 7 37 24 12
26 8 -36 -20 6 36 24 13
26 8 -36 -21 6 36 24 13
26 9 -35 -22 5 35 24 14
25 9 -34 -22 4 33 24 13
25 9 -34 -23 2 32 24 13
24 9 -33 -24 1 30 24 12
23 9 -32 -24 -2 29 24 11
22 8 -31 -25 -3 27 23 10
20 7 -28 -24 -4 26 22 10
17 5 -25 -24 -4 25 21 9
15 4 -23 -23 -5 23 19 8
13 2 -20 -22 -6 22 18 8
11 1 -18 -21 -7 21 17 7
9 0 -16 -20 -8 20 16 6
8 0 -14 -19 -9 19 15 5
6 -2 -12 -18 -10 17 13 3
5 -3 -10 -17 -11 16 12 2
3 -4 -8 -16 -12 15 11 1
2 -4 -6 -15 -13 15 10 0
1 -4 -5 -15 -14 14 8 -2
-2 -4 -3 -14 -15 13 7 -4
-3 -4 -2 -13 -16 13 5 -5
-4 -5 1 -12 -17 12 4 -6
-4 -6 2 -11 -17 12 3 -6
-5 -8 3 -11 -17 12 3 -7
-6 -9 4 -10 -18 11 2 -8
-6 -11 5 -9 -18 11 1 -8
-7 -12 6 -8 -19 10 0 -9
-7 -12 6 -8 -19 9 0 -9
-7 -12 6 -8 -19 9 0 -9
-8 -12 6 -8 -20 8 0 -10
-8 -12 6 -8 -20 7 0 -10
-9 -11 7 -7 -21 6 -2 -11
-9 -11 7 -7 -21 6 -2 -11
-9 -11 7 -7 -21 6 -2 -11
-10 -11 7 -7 -22 6 -3 -11
-10 -11 7 -7 -22 6 -3 -11
-11 -11 8 -7 -23 5 -4 -12
-11 -11 8 -7 -23 5 -4 -12
-11 -11 8 -7 -23 5 -4 -12
-11 -11 8 -7 -23 5 -4 -12
-11 -11 8 -7 -23 5 -4 -12
-10 -10 9 -7 -22 5 -3 -12
-10 -10 9 -6 -22 5 -3 -12
-10 -10 9 -4 -22 5 -3 -12
-10 -9 9 -3 -22 5 -2 -12
-10 -9 9 0 -22 5 -2 -12
-11 -8 10 1 -22 6 0 -11
-11 -8 10 2 -22 6 0 -11
-11 -8 10 2 -21 6 0 -11
-11 -8 11 3 -21 6 1 -11
-11 -8 11 4 -20 6 1 -11
-11 -7 12 5 -19 7 2 -10
-10 -7 12 5 -19 7 2 -10
-10 -7 12 5 -19 7 2 -10
-9 -7 12 4 -19 7 2 -10
-8 -7 12 4 -19 7 2 -10
-7 -7 12 3 -20 7 1 -9
-7 -7 12 3 -20 7 1 -9
-7 -7 12 3 -20 7 1 -9
-7 -6 12 3 -19 7 2 -9
-7 -6 12 3 -19 7 2 -9
-8 -5 12 4 -18 8 3 -8
-8 -5 12 4 -18 8 3 -8
-8 -5 12 4 -18 8 3 -8
-8 -5 12 4 -18 8 3 -7
-8 -5 12 4 -18 8 3 -7
-8 -6 12 5 -17 7 2 -6
-8 -6 12 6 -17 7 2 -6
-8 -6 12 6 -17 7 2 -6
-8 -5 12 7 -16 8 2 -6
-8 -5 12 8 -16 8 2 -6
-8 -4 13 9 -15 9 3 -5
-8 -3 13 9 -15 9 3 -5
-7 -3 13 9 -15 9 3 -5
-7 -2 13 9 -15 9 3 -5
-6 0 13 9 -15 9 3 -5
-5 1 14 9 -14 8 2 -5
-5 1 14 9 -14 8 3 -5
-5 1 14 9 -13 9 4 -4
-6 1 15 10 -13 9 5 -4
-6 1 15 10 -12 10 6 -3
-7 1 16 11 -11 11 7 -2
-7 1 17 12 -11 11 7 -2
-6 2 18 12 -10 11 7 -2
-6 2 19 13 -10 12 8 0
-5 3 20 14 -9 12 8 0
-4 4 21 15 -8 13 9 1
-4 5 21 15 -8 13 9 1
-4 6 21 15 -7 13 9 1
-4 7 22 15 -7 13 9 2
-4 9 22 15 -6 13 9 2
-5 10 23 16 -5 13 10 3
-5 10 23 16 -5 13 10 3
-5 10 23 16 -5 13 10 3
-5 11 23 16 -5 13 10 4
-5 11 23 16 -5 13 10 4
-4 12 23 16 -4 14 10 5
-4 13 22 15 -4 14 10 5
-4 15 21 14 -4 13 10 5
-5 16 20 13 -4 13 10 5
-5 17 19 12 -4 12 10 5
-6 19 18 11 -5 11 10 5
-5 19 18 11 -5 11 10 6
-5 19 18 11 -4 11 11 6
-4 19 19 12 -4 12 11 7
-3 19 19 12 -3 12 12 8
-2 20 20 13 -2 13 13 9
0 19 20 13 -2 13 13 9
0 19 19 12 -2 12 13 9
1 18 19 12 -2 12 13 9
2 17 18 11 -2 11 13 9
3 16 17 10 -2 10 12 8
2 13 15 9 -3 9 10 7
1 10 14 8 -4 7 8 6
0 7 12 7 -5 6 6 5
-2 4 11 5 -6 5 4 3
-3 1 9 4 -7 3 2 2
-3 0 9 4 -7 2 2 1
-3 -3 9 3 -8 1 1 0
-3 -4 9 3 -8 0 1 -2
-3 -5 9 2 -9 -2 0 -4
-4 -7 8 1 -10 -3 -2 -5
-5 -7 8 0 -10 -4 -3 -5
-6 -8 7 -2 -10 -5 -3 -6
-7 -8 7 -3 -11 -6 -4 -6
-9 -9 6 -4 -11 -8 -5 -7
-10 -10 5 -5 -12 -9 -6 -8
-10 -10 5 -5 -12 -9 -7 -8
-10 -11 4 -5 -12 -9 -7 -9
-10 -11 4 -5 -12 -9 -8 -9
-10 -12 3 -5 -12 -9 -9 -10
-10 -13 2 -6 -13 -10 -10 -11
-10 -13 2 -6 -13 -10 -10 -11
-10 -13 2 -6 -13 -10 -10 -11
-10 -13 2 -6 -13 -11 -10 -11
-10 -13 2 -6 -13 -11 -10 -11
-10 -14 2 -6 -13 -12 -10 -11
-10 -14 2 -6 -13 -12 -10 -11
-10 -14 2 -6 -13 -12 -10 -11
-10 -14 2 -7 -13 -12 -10 -11
-10 -14 2 -7 -13 -12 -10 -11
-10 -15 1 -8 -12 -12 -11 -11
-10 -15 1 -8 -12 -12 -11 -11
-10 -15 1 -7 -12 -12 -11 -11
-10 -14 1 -7 -11 -12 -11 -11
-10 -14 1 -6 -11 -12 -11 -11
-9 -13 1 -5 -10 -11 -12 -12
-9 -14 1 -5 -9 -11 -12 -12
-9 -15 1 -5 -8 -11 -12 -12
-9 -16 1 -4 -7 -11 -12 -12
-9 -17 1 -4 -6 -11 -12 -12
-9 -18 1 -2 -5 -11 -12 -11
-8 -18 3 3 -3 -10 -12 -12
-7 -18 6 8 0 -9 -12 -13
-6 -18 8 12 2 -8 -12 -14
-4 -18 11 17 4 -7 -12 -15
-2 -15 14 24 9 -4 -11 -15
7 -6 22 42 23 10 -3 -9
15 5 30 58 36 23 7 -3
23 15 38 75 51 35 16 5
31 24 47 92 65 49 25 11
38 36 54 108 80 63 36 19
45 54 56 121 103 85 55 35
50 72 59 135 125 106 74 53
56 90 61 147 147 128 93 69
62 108 64 160 169 148 111 86
66 122 64 165 184 163 127 99
58 121 53 138 173 154 121 99
50 119 42 110 162 144 117 99
42 118 30 82 151 135 113 99
34 117 19 55 141 125 109 99
23 110 9 25 122 107 99 96
3 88 1 -11 77 64 67 74
-18 64 -7 -46 33 20 36 53
-38 40 -14 -81 -11 -23 6 31
-59 17 -22 -117 -56 -67 -26 11
-74 -3 -29 -144 -91 -101 -51 -8
-66 -11 -35 -138 -87 -99 -53 -13
-59 -18 -41 -131 -82 -96 -54 -19
-51 -26 -48 -124 -78 -94 -56 -25
-43 -34 -54 -118 -74 -91 -58 -30
-36 -40 -58 -110 -70 -88 -60 -35
-32 -40 -53 -97 -61 -79 -56 -33
-29 -39 -48 -83 -52 -72 -52 -31
-25 -38 -43 -70 -43 -65 -48 -29
-21 -37 -37 -58 -33 -57 -44 -27
-18 -36 -32 -46 -25 -51 -39 -25
-17 -33 -28 -38 -21 -46 -36 -23
-15 -29 -24 -31 -16 -40 -33 -21
-13 -26 -20 -24 -11 -36 -30 -19
-12 -23 -16 -17 -6 -31 -27 -17
-10 -20 -12 -11 -2 -27 -24 -15
-10 -20 -12 -10 0 -27 -24 -15
-10 -20 -11 -8 2 -26 -23 -14
-10 -19 -10 -7 4 -25 -22 -13
-10 -19 -9 -6 5 -24 -21 -12
-9 -18 -8 -4 7 -23 -20 -11
-9 -18 -8 -4 8 -22 -20 -11
-8 -17 -8 -3 9 -21 -19 -11
-8 -16 -8 -3 10 -20 -19 -11
-7 -15 -8 -2 11 -19 -18 -11
-6 -14 -7 0 12 -18 -17 -11
-6 -14 -7 0 12 -18 -17 -11
-6 -14 -7 0 12 -18 -17 -11
-6 -14 -7 0 12 -18 -17 -10
-6 -14 -7 0 12 -18 -17 -10
-6 -15 -7 0 12 -18 -16 -9
-6 -15 -7 0 12 -18 -16 -9
-6 -14 -7 1 12 -18 -16 -9
-6 -14 -6 1 13 -18 -16 -9
-6 -13 -6 2 13 -18 -16 -9
-5 -12 -5 3 14 -18 -16 -8
-5 -12 -5 3 14 -18 -16 -8
-5 -12 -5 3 14 -18 -16 -8
-5 -12 -5 3 14 -18 -16 -8
-5 -12 -5 3 14 -18 -16 -8
-4 -12 -6 4 15 -18 -17 -9
-4 -12 -4 4 15 -18 -17 -9
-4 -11 -2 4 16 -18 -17 -9
-4 -11 1 4 17 -17 -17 -9
-4 -10 3 4 18 -17 -17 -9
-3 -9 5 5 19 -16 -16 -8
-3 -9 6 5 19 -16 -16 -7
-3 -9 7 6 20 -15 -15 -6
-3 -9 8 7 21 -15 -15 -5
-3 -9 9 8 22 -14 -14 -4
-3 -10 10 9 23 -13 -13 -3
-3 -10 10 9 23 -13 -13 -3
-2 -10 10 10 23 -13 -13 -3
-2 -10 10 11 23 -12 -13 -3
0 -10 10 12 23 -12 -13 -3
1 -9 11 13 23 -11 -12 -4
1 -9 11 13 23 -11 -12 -4
1 -9 11 13 24 -10 -12 -4
1 -9 11 13 24 -10 -11 -4
1 -9 11 13 25 -9 -11 -4
2 -8 10 12 26 -8 -10 -3
2 -8 10 12 26 -7 -10 -3
2 -8 10 12 27 -6 -10 -2
2 -8 10 13 28 -5 -9 0
2 -8 10 13 29 -3 -9 1
2 -8 10 14 30 -2 -8 2
2 -7 10 14 30 -2 -8 2
3 -5 9 14 30 -2 -8 2
4 -4 8 14 30 0 -7 2
5 -3 7 14 30 0 -7 2
6 0 6 13 31 1 -6 2
7 0 5 13 32 2 -5 3
9 0 3 13 34 4 -3 5
11 1 2 13 36 6 -2 6
12 1 1 13 37 7 0 7
14 2 -2 13 39 9 2 9
16 2 -4 13 39 10 2 10
18 3 -5 13 40 11 3 11
20 3 -7 12 42 12 4 12
22 4 -9 12 43 13 5 13
24 5 -11 11 44 15 6 14
25 5 -12 10 44 15 7 14
27 5 -14 8 45 16 9 15
28 6 -16 6 45 17 10 16
29 6 -17 5 46 18 11 17
31 7 -19 3 47 19 13 18
32 8 -20 2 47 19 13 18
33 9 -21 0 46 19 13 18
34 10 -22 -3 45 19 13 18
35 11 -23 -4 44 19 13 18
36 13 -24 -6 43 18 13 19
36 13 -24 -6 43 18 13 19
35 13 -24 -7 42 17 13 19
34 12 -24 -8 40 16 13 19
33 12 -24 -9 39 15 13 19
32 11 -24 -10 38 14 13 20
32 11 -24 -10 38 14 13 20
31 11 -24 -11 37 14 13 20
31 11 -23 -11 36 13 13 20
30 11 -23 -12 35 13 13 20
29 12 -22 -13 34 12 13 21
28 12 -20 -13 33 12 12 20
27 11 -18 -13 32 11 11 19
26 11 -16 -12 31 10 10 18
25 10 -14 -12 30 9 9 17
23 9 -12 -11 28 8 7 16
21 8 -10 -11 28 8 6 15
19 7 -8 -10 27 7 5 14
17 6 -6 -9 26 6 3 13
15 5 -3 -8 25 5 2 12
13 4 0 -7 24 4 0 11
11 4 2 -6 24 4 0 10
10 4 3 -5 23 3 -2 9
8 3 5 -4 22 3 -3 7
6 3 7 -3 21 2 -4 6
4 2 9 0 20 1 -5 4
3 1 10 0 20 1 -5 4
2 0 11 0 19 0 -6 4
1 -3 12 0 18 0 -7 3
0 -4 13 0 17 -2 -8 3
-2 -6 14 1 16 -3 -9 2
-3 -6 14 1 16 -3 -9 2
-4 -6 15 1 15 -3 -10 1
-5 -7 15 2 14 -3 -11 1
-6 -7 16 2 13 -3 -12 0
-7 -8 17 3 12 -4 -13 -2
-7 -8 17 3 12 -4 -13 -2
-7 -8 17 3 12 -4 -13 -2
-7 -8 17 3 12 -4 -12 -2
-7 -8 17 3 12 -4 -12 -2
-7 -8 18 4 13 -4 -11 -3
-7 -8 18 4 13 -4 -11 -3
-7 -8 18 4 13 -4 -11 -3
-7 -8 18 4 12 -4 -12 -4
-7 -8 18 4 12 -4 -12 -4
-7 -9 17 3 11 -5 -13 -5
-7 -9 17 3 11 -5 -13 -5
-7 -9 17 3 11 -5 -13 -5
-8 -9 18 3 11 -4 -13 -5
-8 -9 18 3 11 -4 -13 -5
-9 -8 19 3 11 -3 -12 -4
-9 -8 19 3 11 -3 -12 -4
-9 -8 19 3 11 -3 -12 -4
-9 -8 19 3 11 -3 -12 -4
-9 -8 19 3 11 -3 -12 -4
-8 -7 18 3 11 -3 -13 -5
-8 -7 18 3 11 -3 -13 -5
-8 -7 18 3 11 -2 -13 -5
-8 -6 18 4 11 -2 -13 -5
-8 -6 18 4 11 0 -13 -5
-7 -5 19 5 11 1 -13 -4
-7 -5 19 5 11 1 -13 -4
-7 -4 19 5 11 1 -13 -4
-7 -3 19 4 11 1 -13 -4
-7 -2 19 4 11 1 -13 -4
-8 0 18 3 11 1 -12 -5
-8 0 18 3 11 1 -12 -4
-8 0 18 3 12 2 -12 -3
-8 -2 18 4 13 2 -11 -2
-8 -2 18 4 14 3 -11 0
-8 -3 19 5 15 4 -10 1
-8 -3 19 5 15 4 -10 1
-8 -3 19 6 15 4 -10 1
-8 -3 19 7 15 4 -10 0
-8 -3 19 8 15 4 -10 0
-7 -2 18 9 14 5 -9 -2
-7 -2 18 9 14 5 -9 -2
-6 -2 18 9 14 5 -9 -2
-6 -2 17 9 14 5 -9 0
-5 -2 17 9 14 5 -9 0
-4 -2 16 8 14 4 -8 1
-4 -2 16 8 14 4 -8 1
-4 -2 16 8 14 4 -8 1
-5 -2 17 9 14 4 -8 1
-5 -2 17 9 14 4 -8 1
-6 0 18 10 14 5 -7 0
-6 2 18 10 14 5 -7 0
-5 4 18 11 14 5 -7 0
-4 6 18 11 14 6 -6 1
-3 8 18 12 14 6 -6 1
-2 10 19 13 15 7 -5 2
-2 10 19 13 15 7 -5 2
-2 10 20 13 15 7 -5 2
-3 10 20 14 15 7 -5 2
-3 10 21 14 15 7 -5 2
-4 9 22 15 15 8 -4 2
-4 10 22 15 15 8 -4 2
-4 11 22 15 14 8 -4 2
-4 12 22 15 14 8 -3 3
-4 13 22 15 13 8 -3 3
-3 15 22 15 12 7 -2 4
-3 15 22 15 12 7 -2 4
-3 15 22 15 12 7 -2 4
-3 15 22 15 12 8 0 4
-3 15 22 15 12 8 0 4
-3 15 21 16 13 9 1 5
-3 16 21 16 13 9 1 5
-3 18 21 15 13 9 1 5
-3 20 21 15 12 9 2 5
-3 22 21 14 12 9 2 5
-3 24 20 13 11 9 3 6
-3 24 20 13 11 9 3 6
-2 24 20 13 11 9 4 7
0 24 20 13 11 9 4 8
1 24 20 13 11 9 5 9
2 24 19 14 12 10 6 10
2 23 18 13 11 9 5 9
2 21 16 12 9 8 4 8
2 19 15 10 8 7 3 6
2 17 13 9 6 6 2 5
2 15 11 7 4 4 0 3
2 13 10 7 3 4 0 2
2 11 9 6 2 3 -2 1
1 8 8 5 1 2 -3 0
1 6 7 4 0 1 -4 -2
0 3 6 3 -2 0 -5 -3
0 2 6 3 -3 -2 -5 -3
-2 1 6 3 -4 -3 -6 -4
-3 -2 6 2 -5 -4 -6 -5
-4 -3 6 2 -6 -5 -7 -6
-5 -5 6 1 -7 -6 -8 -7
-5 -5 6 1 -8 -6 -8 -7
-6 -6 5 0 -9 -7 -9 -7
-7 -6 5 0 -10 -8 -9 -8
-8 -7 4 -2 -11 -9 -10 -8
-9 -8 3 -3 -12 -10 -11 -9
-9 -8 3 -3 -12 -10 -11 -9
-9 -9 2 -4 -12 -10 -11 -9
-9 -10 2 -5 -12 -10 -11 -9
-9 -11 1 -6 -12 -10 -11 -9
-9 -12 0 -7 -13 -11 -11 -10
-9 -12 0 -7 -13 -11 -11 -10
-9 -12 0 -7 -13 -11 -11 -10
-9 -12 0 -7 -14 -11 -11 -10
-9 -12 0 -7 -14 -11 -11 -10
-10 -13 0 -8 -15 -12 -11 -10
-10 -13 0 -8 -15 -12 -11 -10
-10 -13 0 -8 -15 -12 -11 -10
-10 -13 0 -8 -16 -12 -11 -10
-10 -13 0 -8 -16 -12 -11 -10
-9 -13 1 -7 -17 -13 -11 -9
-9 -13 1 -8 -18 -13 -11 -9
-9 -13 1 -9 -19 -14 -11 -9
-10 -14 1 -10 -20 -15 -11 -10
-10 -14 1 -11 -21 -16 -11 -10
-11 -15 0 -13 -22 -17 -11 -11
-11 -15 0 -13 -22 -17 -11 -11
-10 -15 0 -13 -22 -18 -11 -11
-9 -15 0 -13 -22 -19 -11 -11
-8 -15 0 -13 -22 -20 -11 -11
-7 -15 -2 -13 -23 -21 -11 -11
-4 -14 5 -3 -20 -18 -11 -11
0 -12 12 8 -16 -15 -11 -11
3 -10 18 18 -13 -12 -11 -11
6 -8 25 28 -9 -9 -11 -11
9 -6 32 39 -5 -6 -11 -11
18 7 38 59 15 13 5 -2
27 19 45 78 34 30 21 9
36 31 52 98 54 49 36 19
46 44 58 118 74 67 52 29
56 56 65 138 94 86 68 39
57 74 64 140 112 104 86 56
58 94 62 142 130 122 104 73
59 112 61 145 148 141 121 90
60 131 59 147 167 159 140 107
61 150 57 150 185 179 158 125
42 135 48 108 145 142 135 110
22 118 38 65 105 104 110 96
3 102 29 23 65 67 86 81
-17 86 20 -19 25 30 61 67
-37 69 10 -62 -15 -8 36 52
-44 52 -2 -81 -37 -30 18 36
-50 33 -13 -102 -61 -54 0 21
-56 15 -25 -121 -85 -77 -20 6
-62 -4 -36 -142 -108 -101 -38 -10
-69 -22 -49 -162 -132 -124 -58 -26
-62 -26 -49 -151 -124 -118 -56 -28
-54 -31 -50 -140 -117 -111 -55 -29
-47 -35 -51 -128 -110 -105 -53 -31
-38 -40 -52 -116 -103 -98 -51 -33
-31 -45 -52 -105 -96 -92 -49 -35
-28 -44 -48 -93 -88 -85 -45 -34
-25 -40 -41 -81 -80 -77 -40 -32
-22 -37 -35 -70 -73 -71 -36 -30
-19 -34 -29 -59 -66 -64 -32 -28
-17 -31 -24 -48 -59 -58 -28 -26
-16 -28 -20 -41 -55 -54 -25 -24
-16 -26 -17 -36 -51 -50 -23 -23
-15 -23 -13 -31 -47 -47 -21 -21
-15 -21 -10 -26 -43 -43 -19 -20
-15 -19 -7 -21 -39 -39 -17 -19
-14 -18 -6 -19 -38 -38 -16 -18
-13 -18 -6 -18 -37 -38 -15 -17
-13 -18 -5 -16 -36 -37 -14 -16
-12 -18 -5 -15 -35 -37 -13 -15
-12 -18 -5 -14 -35 -37 -13 -15
-11 -17 -4 -13 -34 -36 -12 -14
-11 -16 -3 -12 -34 -35 -12 -14
-11 -16 -3 -12 -33 -34 -11 -13
-11 -15 -2 -11 -33 -33 -11 -13
-11 -15 -2 -11 -33 -33 -11 -13
-10 -14 0 -10 -32 -32 -10 -12
-10 -14 0 -10 -32 -32 -10 -12
-10 -14 0 -10 -32 -32 -10 -12
-10 -14 0 -10 -32 -32 -10 -12
-10 -14 0 -10 -32 -32 -10 -12
-10 -14 -2 -10 -32 -32 -10 -12
-10 -13 -2 -9 -31 -31 -10 -12
-9 -12 -2 -9 -30 -30 -10 -12
-9 -11 -2 -8 -29 -29 -10 -12
-9 -11 -2 -8 -29 -29 -10 -12
-8 -10 -2 -7 -28 -28 -11 -13
-8 -11 -2 -7 -28 -28 -11 -13
-7 -11 -2 -7 -28 -28 -11 -12
-7 -12 -2 -7 -28 -28 -11 -12
-7 -12 -2 -7 -28 -28 -11 -12
-6 -13 -2 -8 -28 -29 -10 -11
-6 -13 -2 -8 -27 -29 -10 -11
-6 -12 -2 -7 -27 -29 -10 -11
-6 -12 -2 -7 -26 -29 -10 -11
-6 -12 -2 -7 -26 -29 -10 -11
-7 -11 0 -6 -25 -28 -9 -10
-6 -11 0 -6 -24 -27 -9 -10
-5 -11 0 -5 -23 -26 -8 -9
-4 -11 0 -5 -22 -25 -8 -9
-4 -11 0 -5 -22 -25 -8 -9
-3 -10 -2 -4 -21 -24 -7 -8
-3 -10 -2 -4 -21 -23 -6 -8
-3 -10 -2 -3 -21 -22 -5 -7
-3 -10 -2 -3 -21 -21 -4 -7
-3 -10 -2 -3 -21 -21 -4 -7
-4 -10 -3 -2 -20 -20 -3 -6
-4 -10 -4 -2 -20 -20 -3 -6
-3 -10 -4 -2 -20 -20 -4 -6
-3 -10 -5 -2 -20 -20 -4 -6
-3 -10 -5 -2 -20 -20 -4 -6
-2 -9 -6 -3 -19 -19 -5 -7
0 -9 -7 -3 -18 -18 -4 -7
0 -8 -7 -2 -16 -17 -4 -6
1 -8 -8 -2 -15 -16 -3 -6
1 -8 -8 -2 -14 -15 -3 -6
3 -7 -10 0 -13 -13 -2 -5
5 -7 -11 0 -12 -12 0 -5
6 -6 -12 1 -11 -11 1 -4
8 -6 -13 1 -10 -10 2 -4
9 -6 -14 1 -10 -9 3 -4
10 -5 -16 2 -8 -8 4 -2
10 -5 -18 2 -7 -7 5 0
11 -4 -20 1 -6 -6 6 1
11 -4 -22 1 -5 -5 7 2
11 -4 -23 1 -4 -4 7 3
14 -3 -25 0 -3 -3 9 4
16 -2 -26 -2 -3 -3 10 5
19 0 -28 -2 -3 -2 11 5
21 1 -29 -3 -3 -2 12 6
23 1 -30 -3 -3 -2 13 6
24 2 -32 -5 -2 1 14 7
25 2 -34 -6 0 2 14 8
25 3 -36 -7 1 4 15 9
26 3 -38 -8 2 5 15 10
26 3 -39 -9 2 6 15 10
27 4 -40 -11 3 7 16 11
27 4 -40 -12 3 7 16 11
28 5 -40 -14 2 7 16 11
28 5 -40 -15 2 7 16 11
28 5 -40 -16 2 7 16 11
29 6 -41 -17 1 6 17 12
28 6 -41 -18 0 5 17 12
27 6 -41 -18 -2 4 17 13
26 6 -41 -19 -3 3 17 13
26 6 -41 -19 -3 3 17 13
24 5 -43 -20 -5 2 17 14
23 5 -41 -21 -6 1 16 13
22 5 -40 -22 -7 0 15 13
21 5 -39 -23 -8 -2 14 12
20 5 -39 -24 -9 -3 13 12
18 4 -36 -25 -10 -4 11 10
17 3 -34 -24 -11 -5 10 9
15 3 -31 -23 -12 -6 9 7
14 2 -28 -22 -13 -7 8 6
13 2 -26 -22 -13 -7 7 5
10 1 -23 -20 -14 -8 5 4
8 0 -21 -19 -15 -9 4 3
6 -2 -19 -18 -16 -10 2 2
4 -3 -16 -17 -17 -11 1 1
2 -3 -14 -16 -17 -11 0 1
0 -4 -12 -15 -18 -12 -2 0
-2 -4 -10 -14 -19 -12 -2 -2
-4 -5 -8 -13 -19 -12 -2 -3
-5 -5 -6 -12 -20 -12 -2 -4
-6 -5 -4 -12 -20 -12 -2 -4
-7 -7 -3 -11 -21 -13 -3 -5
-8 -8 -2 -10 -22 -13 -4 -6
-8 -9 0 -9 -22 -13 -4 -6
-9 -10 1 -8 -23 -13 -5 -7
-9 -11 1 -8 -23 -13 -5 -7
-10 -12 2 -7 -24 -14 -6 -9
-10 -12 2 -7 -25 -15 -7 -10
-11 -12 2 -7 -26 -16 -7 -11
-11 -12 2 -7 -27 -17 -8 -12
-11 -12 2 -7 -27 -17 -8 -13
-12 -12 2 -7 -28 -18 -9 -14
-13 -13 2 -7 -28 -18 -10 -14
-14 -13 2 -7 -28 -18 -10 -14
-15 -14 2 -7 -28 -18 -11 -14
-15 -14 2 -7 -28 -18 -11 -14
-16 -15 3 -8 -28 -19 -12 -13
-16 -14 3 -7 -28 -19 -12 -13
-16 -14 3 -6 -28 -19 -11 -14
-16 -13 3 -5 -28 -19 -11 -14
-16 -13 3 -5 -28 -19 -11 -14
-16 -12 4 -4 -28 -18 -10 -15
-15 -12 4 -4 -28 -18 -10 -15
-15 -13 4 -4 -28 -18 -10 -15
-14 -13 4 -4 -28 -18 -10 -15
-14 -13 4 -4 -28 -18 -10 -15
-13 -14 4 -5 -28 -17 -11 -16
-13 -14 4 -5 -28 -16 -11 -16
-13 -13 4 -5 -27 -16 -10 -15
-13 -13 4 -5 -27 -15 -10 -15
-13 -13 4 -5 -27 -15 -10 -15
-14 -12 5 -4 -26 -14 -9 -14
-14 -12 5 -4 -26 -14 -9 -14
-15 -12 5 -3 -25 -13 -9 -13
-15 -12 5 -3 -25 -13 -9 -13
-15 -12 5 -3 -25 -13 -9 -13
-16 -12 6 -2 -24 -12 -10 -12
-16 -12 6 0 -23 -12 -9 -12
-16 -12 6 0 -22 -12 -8 -12
-16 -12 6 1 -21 -12 -7 -12
-16 -12 6 1 -20 -12 -7 -12
-15 -12 7 2 -19 -11 -6 -11
-15 -11 7 2 -19 -10 -6 -11
-15 -10 7 2 -19 -10 -6 -11
-15 -9 7 2 -19 -9 -6 -11
-15 -9 7 2 -19 -9 -6 -11
-14 -8 7 2 -18 -8 -7 -11
-14 -8 7 2 -18 -8 -7 -11
-14 -8 6 2 -18 -8 -7 -10
-14 -8 6 2 -18 -8 -7 -10
-14 -8 6 2 -18 -8 -7 -10
-13 -8 5 4 -16 -9 -6 -9
-13 -8 6 5 -15 -8 -5 -9
-13 -8 7 6 -14 -7 -5 -8
-13 -8 8 7 -13 -6 -4 -8
-13 -8 8 8 -12 -5 -4 -8
-12 -8 9 9 -11 -4 -3 -7
-12 -5 10 9 -11 -4 -3 -7
-12 -3 10 9 -11 -4 -3 -7
-12 0 11 9 -11 -4 -3 -7
-12 2 11 9 -11 -4 -3 -7
-11 3 12 10 -10 -3 -2 -6
-11 3 12 10 -10 -3 -2 -6
-11 3 12 10 -10 -3 0 -5
-11 3 12 10 -10 -3 0 -5
-11 3 12 10 -10 -3 0 -5
-11 2 12 11 -9 -3 1 -4
-11 3 12 12 -9 -3 1 -4
-11 4 13 12 -8 -2 1 -4
-11 5 13 13 -8 -2 1 -4
-11 6 13 13 -8 -2 1 -4
-11 8 14 14 -7 0 1 -4
-11 9 15 14 -6 1 2 -3
-11 10 16 15 -5 2 2 -2
-11 11 17 15 -4 3 3 0
-11 12 17 15 -4 3 3 1
-10 13 18 16 -3 4 4 2
-10 14 17 15 -3 4 4 2
-10 15 17 14 -3 4 4 2
-10 16 16 13 -3 4 4 2
-10 16 16 13 -3 4 4 2
-9 17 15 12 -3 3 5 1
-8 18 15 13 -3 3 5 2
-7 18 15 13 -2 4 5 2
-6 19 15 14 -2 4 5 3
-6 19 15 14 -2 4 5 3
-5 20 15 15 0 5 5 4
-5 20 14 14 0 5 5 4
-4 19 13 14 0 4 5 4
-4 19 12 13 0 4 5 4
-4 19 12 13 0 4 5 4
-3 16 11 11 -2 3 5 3
-3 14 10 10 -3 2 4 2
-3 12 9 9 -4 1 3 1
-3 9 8 7 -5 0 2 0
-3 7 7 6 -6 -2 1 -2
-4 5 6 5 -7 -3 0 -3
-5 4 6 4 -7 -4 -2 -4
-6 2 6 4 -7 -5 -3 -4
-7 0 6 3 -7 -6 -4 -5
-8 -2 6 3 -7 -7 -5 -5
-9 -4 6 2 -8 -8 -6 -6
-11 -6 5 1 -9 -9 -7 -7
-12 -8 5 0 -9 -9 -8 -8
-13 -9 4 -2 -10 -10 -9 -9
-14 -11 4 -2 -10 -10 -9 -9
-15 -12 3 -3 -11 -11 -10 -10
-14 -12 3 -3 -11 -11 -10 -10
-14 -12 2 -3 -12 -11 -10 -10
-13 -12 2 -3 -12 -11 -10 -10
-13 -12 2 -3 -12 -11 -10 -10
-12 -11 1 -4 -13 -10 -11 -11
-12 -11 1 -4 -13 -10 -11 -11
-11 -12 0 -5 -12 -10 -11 -11
-11 -12 0 -5 -12 -10 -11 -11
-11 -12 0 -5 -12 -10 -11 -11
-10 -13 -2 -6 -11 -10 -12 -11
-11 -13 -2 -6 -11 -10 -12 -11
-12 -13 -2 -6 -11 -10 -12 -11
-13 -13 -2 -6 -11 -10 -12 -11
-13 -13 -2 -6 -11 -10 -12 -11
-14 -14 -3 -7 -12 -11 -12 -12
-13 -14 -3 -7 -12 -11 -12 -12
-13 -14 -3 -7 -12 -11 -12 -12
-12 -14 -3 -7 -12 -11 -12 -12
-12 -14 -3 -7 -12 -11 -12 -12
-11 -13 -3 -7 -12 -12 -12 -12
-11 -13 -3 -7 -12 -12 -12 -12
-11 -14 -4 -7 -12 -12 -12 -12
-11 -14 -4 -7 -12 -12 -12 -12
-11 -14 -4 -7 -12 -12 -12 -12
-10 -15 -4 -6 -11 -11 -12 -11
-9 -16 0 -3 -10 -10 -12 -11
-7 -17 2 0 -9 -10 -12 -11
-5 -18 5 3 -7 -9 -12 -11
-4 -18 7 5 -6 -9 -12 -11
1 -13 14 18 4 0 -8 -10
6 -5 23 34 13 10 -2 -8
11 4 31 51 23 20 5 -5
16 12 39 67 33 30 12 -3
21 20 49 84 44 40 18 0
27 34 54 100 64 60 34 13
34 50 59 116 88 82 53 28
42 66 63 133 111 104 71 45
49 81 68 149 134 127 90 60
56 97 73 165 157 149 108 75
55 105 65 155 162 154 114 84
52 112 52 136 162 155 118 90
48 118 39 117 161 156 121 96
44 125 27 98 161 157 125 101
39 131 14 78 161 157 129 107
21 115 5 38 120 120 104 93
-2 93 -3 -8 69 71 71 72
-24 70 -11 -53 18 22 38 51
-48 48 -19 -99 -34 -27 6 30
-70 25 -27 -145 -86 -76 -27 9
-70 12 -34 -153 -97 -89 -37 -2
-64 0 -43 -151 -97 -92 -43 -9
-58 -12 -50 -148 -97 -94 -48 -16
-51 -24 -57 -145 -97 -97 -53 -23
-45 -35 -65 -142 -97 -99 -58 -30
-39 -38 -63 -130 -91 -93 -57 -32
-34 -38 -58 -115 -81 -83 -53 -31
-29 -39 -52 -101 -73 -74 -49 -31
-24 -39 -47 -87 -64 -66 -45 -30
-20 -39 -41 -72 -55 -57 -39 -30
-18 -38 -35 -62 -49 -50 -36 -28
-17 -35 -30 -53 -43 -45 -32 -25
-17 -32 -24 -44 -36 -39 -29 -23
-16 -29 -18 -34 -30 -34 -26 -20
-16 -26 -13 -25 -24 -29 -22 -18
-15 -24 -11 -20 -21 -26 -20 -16
-13 -22 -9 -18 -19 -24 -19 -15
-12 -21 -8 -15 -18 -22 -17 -14
-11 -19 -7 -13 -16 -20 -15 -12
-10 -17 -6 -10 -14 -18 -14 -11
-9 -16 -5 -9 -13 -17 -13 -10
-9 -16 -5 -9 -13 -17 -13 -10
-9 -16 -4 -8 -13 -16 -13 -10
-9 -16 -4 -8 -13 -16 -13 -10
-9 -16 -4 -8 -13 -16 -13 -10
-9 -16 -3 -7 -12 -15 -12 -10
-9 -15 -3 -7 -12 -15 -12 -10
-8 -14 -3 -7 -12 -15 -12 -10
-8 -13 -3 -7 -12 -15 -12 -10
-8 -13 -3 -7 -12 -15 -12 -10
-7 -12 -2 -7 -12 -14 -11 -9
-6 -12 0 -6 -11 -14 -11 -9
-6 -11 0 -5 -10 -14 -10 -8
-5 -11 1 -4 -9 -14 -10 -8
-5 -11 1 -4 -9 -14 -10 -8
-4 -10 2 -3 -8 -13 -9 -7
-4 -10 2 -3 -8 -13 -8 -7
-4 -10 1 -3 -8 -13 -8 -7
-4 -10 1 -3 -8 -13 -7 -7
-4 -10 1 -3 -8 -13 -7 -7
-3 -9 0 -3 -8 -13 -6 -7
-3 -9 0 -3 -8 -13 -6 -7
-3 -9 0 -2 -7 -12 -6 -7
-3 -9 0 -2 -7 -12 -6 -7
-3 -9 0 -2 -7 -12 -6 -7
-4 -9 1 0 -6 -11 -7 -6
-3 -9 1 0 -5 -10 -6 -6
-3 -8 0 0 -5 -9 -6 -5
-2 -8 0 0 -4 -8 -5 -5
-2 -8 0 0 -4 -7 -5 -5
0 -7 -2 0 -3 -6 -4 -4
0 -7 -2 1 -3 -6 -4 -4
0 -7 -2 1 -3 -5 -3 -3
0 -7 -2 2 -3 -5 -3 -3
0 -7 -2 2 -3 -5 -3 -3
0 -7 0 3 -2 -4 -2 -2
1 -7 0 3 -2 -3 0 -2
1 -6 -2 3 -2 -3 1 -2
2 -6 -2 3 -2 -2 1 -2
2 -6 -2 3 -2 -2 2 -2
3 -5 -3 4 0 0 3 0
4 -5 -3 4 0 1 3 0
4 -5 -3 5 0 1 3 0
5 -5 -3 5 0 2 3 0
5 -5 -3 5 0 2 3 0
6 -4 -4 6 0 3 2 0
7 -3 -6 6 1 4 3 1
8 -3 -7 6 2 5 4 1
9 -2 -8 6 2 5 5 2
10 -2 -9 6 3 6 6 2
11 0 -10 5 4 7 7 3
12 1 -11 5 5 8 8 3
12 1 -11 5 6 9 9 3
13 2 -12 5 7 10 9 3
13 2 -12 5 8 11 10 3
15 3 -14 6 9 12 11 4
18 5 -17 6 10 14 13 6
21 6 -19 5 11 15 14 7
23 7 -21 5 11 16 15 8
26 8 -24 5 12 17 16 9
27 9 -25 4 13 19 17 11
28 9 -27 4 14 20 19 12
29 9 -28 3 15 21 20 14
30 9 -29 3 16 23 21 15
31 9 -30 3 17 24 22 17
32 10 -32 1 18 25 23 18
33 11 -33 -2 17 25 23 19
33 12 -34 -3 16 24 24 19
34 14 -36 -5 16 24 24 20
34 15 -37 -7 15 24 24 20
35 16 -38 -8 14 23 25 21
35 16 -38 -10 13 23 25 21
35 16 -38 -11 12 23 25 21
35 16 -38 -13 11 23 25 21
35 16 -38 -14 10 23 25 21
36 15 -39 -15 9 21 24 20
35 15 -39 -17 7 20 23 20
34 15 -39 -18 6 18 22 20
33 15 -39 -20 4 17 22 20
32 15 -39 -21 3 15 21 20
31 16 -38 -22 2 14 20 19
29 14 -36 -22 1 14 20 19
28 13 -34 -21 1 14 20 18
27 12 -31 -21 0 14 20 18
26 11 -29 -21 0 14 20 18
24 10 -27 -20 -3 13 18 17
21 10 -25 -20 -5 11 17 15
18 9 -23 -20 -6 10 15 14
16 9 -20 -20 -8 8 14 13
13 9 -18 -20 -10 6 12 12
12 8 -16 -19 -11 5 11 11
11 7 -14 -17 -13 4 9 9
11 6 -12 -16 -14 4 8 8
10 5 -10 -14 -16 3 7 6
10 4 -8 -13 -17 3 6 5
9 3 -7 -12 -18 2 5 4
7 2 -5 -12 -18 1 4 3
6 1 -4 -12 -19 1 3 2
4 0 -2 -12 -19 0 3 1
3 -2 0 -12 -19 0 2 0
2 -3 1 -11 -20 -2 1 -2
1 -3 2 -10 -21 -2 0 -2
0 -4 2 -9 -21 -2 -2 -3
-2 -4 3 -9 -22 -2 -2 -3
-3 -4 3 -8 -22 -2 -3 -3
-4 -5 4 -7 -23 -2 -4 -4
-4 -5 4 -7 -24 -2 -4 -4
-5 -5 5 -7 -24 -2 -4 -4
-5 -5 5 -7 -25 -2 -4 -4
-5 -5 5 -7 -25 -2 -4 -4
-6 -6 6 -6 -26 -2 -5 -5
-7 -7 6 -6 -27 -2 -5 -5
-8 -7 6 -7 -27 -2 -6 -6
-8 -8 6 -7 -28 -2 -6 -6
-9 -8 6 -7 -28 -2 -6 -6
-10 -9 6 -8 -29 -3 -7 -7
-10 -8 6 -8 -29 -2 -7 -7
-10 -7 6 -7 -29 -2 -7 -8
-10 -7 6 -7 -29 0 -7 -8
-10 -6 6 -7 -29 0 -7 -8
-9 -5 7 -6 -29 1 -7 -9
-9 -5 7 -5 -29 2 -7 -9
-8 -5 8 -5 -29 3 -7 -8
-8 -5 8 -4 -29 3 -7 -8
-8 -5 8 -4 -29 4 -7 -8
-7 -6 9 -3 -28 5 -8 -7
-7 -6 9 -3 -28 6 -8 -7
-8 -6 9 -3 -28 6 -7 -7
-8 -6 9 -3 -28 7 -7 -7
-8 -6 9 -3 -28 7 -7 -7
-9 -5 8 -3 -28 8 -6 -7
-9 -5 8 -3 -28 8 -6 -7
-9 -5 8 -2 -27 9 -6 -7
-9 -5 8 -2 -26 9 -6 -7
-9 -5 8 -2 -26 9 -6 -7
-9 -5 9 0 -25 10 -6 -7
-9 -5 9 0 -25 10 -6 -7
-9 -4 9 1 -25 10 -6 -6
-9 -4 9 2 -25 10 -6 -6
-9 -4 9 2 -25 10 -6 -6
-8 -3 8 3 -26 10 -5 -5
-8 -3 8 3 -26 10 -5 -5
-9 -3 8 4 -26 10 -4 -5
-9 -3 8 4 -26 10 -4 -5
-9 -3 8 4 -26 10 -4 -5
-10 -2 9 5 -25 11 -3 -4
-10 -2 9 5 -25 11 -3 -4
-9 -2 9 6 -24 11 -3 -4
-9 -2 9 6 -24 11 -3 -4
-9 -2 9 6 -24 11 -3 -4
-8 -2 9 7 -23 11 -3 -3
-8 -2 9 7 -22 12 -3 -3
-8 0 10 8 -21 13 -2 -3
-8 1 10 8 -21 14 -2 -3
-8 1 10 8 -20 15 -2 -3
-8 2 11 9 -19 16 0 -3
-8 4 11 9 -19 16 0 -3
-8 5 12 10 -19 16 0 -2
-8 7 13 10 -19 16 0 -2
-8 8 13 10 -19 16 0 -2
-8 9 14 11 -18 17 1 0
-8 9 14 11 -18 17 1 0
-7 8 15 12 -17 17 1 1
-7 8 16 13 -16 17 1 1
-7 8 16 13 -16 17 1 1
-6 7 17 14 -15 18 2 2
-6 8 17 15 -14 18 2 2
-6 9 18 16 -13 19 3 3
-6 10 18 16 -13 20 4 3
-6 11 18 17 -12 20 4 3
-7 12 19 18 -11 21 5 4
-7 12 19 18 -11 21 5 4
-7 12 20 18 -10 21 5 5
-7 12 20 18 -10 21 5 5
-7 12 20 18 -10 21 5 5
-6 13 21 17 -9 21 5 6
-6 15 20 17 -9 20 5 6
-6 16 19 16 -9 19 5 6
-6 18 18 16 -9 19 5 6
-6 19 17 16 -9 18 5 6
-5 20 16 15 -8 17 5 6
-4 20 16 15 -7 17 6 6
-3 21 16 15 -6 18 7 7
-3 21 16 15 -6 18 7 8
-2 21 16 15 -5 18 8 8
0 22 15 14 -4 19 9 9
0 20 14 12 -4 17 9 9
0 18 12 10 -5 15 8 8
0 17 11 9 -5 14 7 8
0 15 10 7 -5 12 7 8
1 13 9 6 -6 11 5 7
-2 10 9 6 -7 10 4 5
-3 7 8 5 -8 9 2 4
-5 4 8 4 -8 8 0 2
-6 1 8 4 -9 7 -3 1
-7 -2 7 3 -10 6 -4 0
-7 -3 7 3 -10 5 -4 -2
-7 -4 6 2 -11 3 -5 -3
-7 -4 5 2 -11 2 -6 -3
-7 -5 5 2 -11 1 -6 -4
-7 -6 4 1 -12 0 -7 -5
-7 -7 4 1 -12 -2 -7 -5
-8 -8 4 0 -12 -3 -8 -6
-9 -9 4 0 -12 -3 -9 -7
-9 -10 4 0 -12 -4 -9 -7
-10 -11 3 -2 -12 -5 -10 -8
-10 -11 3 -2 -12 -5 -10 -8
-10 -12 2 -3 -12 -6 -10 -8
-10 -12 2 -3 -12 -7 -10 -8
-10 -12 2 -3 -12 -7 -10 -8
-10 -13 1 -4 -12 -8 -11 -9
-10 -13 1 -4 -12 -8 -11 -9
-10 -13 0 -5 -12 -9 -11 -9
-10 -13 -2 -5 -12 -10 -11 -9
-10 -13 -2 -5 -12 -10 -11 -9
-10 -13 -3 -6 -13 -11 -11 -10
-10 -13 -3 -6 -13 -11 -11 -10
-10 -13 -3 -6 -13 -12 -11 -10
-10 -13 -3 -6 -13 -12 -11 -10
-10 -13 -3 -6 -13 -12 -11 -10
-11 -14 -4 -6 -13 -13 -12 -11
-11 -14 -4 -6 -13 -13 -12 -11
-10 -14 -4 -7 -13 -14 -12 -11
-9 -14 -4 -7 -13 -14 -12 -11
-9 -14 -4 -7 -13 -14 -12 -11
-8 -15 -4 -8 -13 -15 -12 -11
-8 -15 -4 -8 -13 -15 -12 -11
-8 -15 -5 -8 -13 -16 -12 -11
-8 -15 -5 -8 -13 -16 -12 -11
-8 -15 -5 -8 -13 -16 -12 -11
-8 -16 -3 -3 -11 -16 -13 -11
-5 -15 4 6 -7 -14 -13 -11
-3 -14 10 14 -4 -12 -13 -12
1 -14 16 22 1 -10 -13 -13
3 -13 22 30 4 -7 -13 -13
9 -7 29 45 16 4 -5 -10
17 5 36 64 33 20 8 0
25 15 44 82 51 36 21 8
33 25 51 102 69 53 34 17
42 35 58 121 87 69 47 25
47 52 60 133 105 87 63 39
50 72 59 138 125 106 81 57
52 92 57 144 144 126 101 74
55 112 55 150 163 145 119 93
57 133 53 155 182 164 139 110
54 136 45 136 174 157 138 113
43 125 31 96 142 128 119 104
32 113 18 56 110 98 102 94
22 102 5 16 78 69 84 85
12 91 -9 -24 47 39 66 75
-2 74 -19 -55 16 10 46 61
-18 53 -28 -80 -14 -20 22 43
-33 31 -36 -106 -43 -50 -2 24
-49 10 -45 -131 -72 -79 -24 7
-65 -12 -54 -156 -102 -109 -48 -12
-68 -24 -59 -161 -111 -119 -58 -21
-60 -28 -61 -148 -104 -113 -56 -24
-52 -33 -63 -136 -97 -107 -54 -26
-44 -37 -65 -122 -90 -100 -53 -29
-35 -43 -67 -110 -82 -94 -51 -31
-30 -44 -64 -98 -74 -87 -48 -32
-27 -41 -56 -85 -66 -79 -43 -30
-25 -38 -48 -72 -58 -72 -38 -28
-22 -36 -38 -59 -49 -64 -33 -26
-20 -34 -30 -47 -40 -57 -29 -23
-18 -31 -25 -37 -35 -52 -25 -22
-17 -29 -21 -32 -31 -49 -22 -20
-16 -26 -18 -27 -28 -45 -19 -19
-15 -24 -14 -21 -24 -41 -17 -18
-14 -22 -11 -16 -21 -38 -14 -16
-13 -20 -9 -13 -19 -36 -12 -15
-12 -19 -9 -12 -19 -36 -12 -15
-11 -18 -9 -11 -18 -35 -11 -14
-11 -18 -9 -10 -17 -35 -11 -13
-10 -17 -9 -9 -17 -35 -11 -13
-9 -16 -8 -8 -16 -34 -10 -12
-9 -16 -8 -8 -16 -34 -10 -12
-10 -16 -8 -8 -16 -34 -10 -12
-10 -16 -8 -8 -16 -34 -10 -12
-10 -16 -8 -8 -16 -34 -10 -12
-11 -16 -7 -7 -15 -34 -10 -13
-10 -16 -7 -6 -15 -34 -10 -13
-9 -16 -7 -5 -15 -33 -9 -12
-8 -16 -7 -4 -15 -33 -9 -12
-7 -16 -7 -3 -15 -33 -9 -12
-6 -15 -6 -2 -14 -32 -8 -11
-6 -15 -6 -2 -14 -32 -8 -11
-6 -15 -6 -2 -14 -32 -7 -11
-6 -15 -6 -2 -14 -32 -7 -11
-6 -15 -6 -2 -14 -32 -7 -11
-7 -14 -5 -2 -14 -32 -6 -12
-6 -14 -5 0 -14 -32 -6 -12
-5 -14 -5 1 -14 -32 -6 -12
-5 -14 -5 1 -14 -32 -6 -12
-4 -14 -5 2 -14 -32 -6 -12
-3 -13 -5 3 -13 -31 -5 -11
-3 -13 -5 3 -13 -31 -5 -11
-3 -12 -5 2 -13 -31 -5 -11
-3 -11 -5 2 -13 -31 -5 -11
-3 -11 -5 2 -13 -31 -5 -11
-3 -10 -5 1 -12 -30 -5 -11
-3 -10 -5 2 -12 -30 -4 -11
-2 -10 -5 3 -11 -29 -3 -10
-2 -10 -5 4 -10 -29 -3 -10
-2 -10 -5 5 -10 -29 -2 -10
0 -9 -4 6 -9 -28 0 -9
0 -9 -4 6 -9 -28 0 -9
0 -9 -4 6 -8 -27 1 -9
0 -9 -4 6 -7 -27 2 -9
0 -9 -4 6 -7 -27 2 -9
0 -9 -5 7 -6 -26 3 -9
0 -9 -5 7 -6 -26 3 -9
1 -8 -6 7 -6 -26 3 -9
1 -8 -6 7 -6 -26 3 -9
1 -8 -6 7 -6 -26 3 -9
2 -7 -7 8 -6 -25 4 -8
4 -7 -8 8 -5 -25 4 -8
5 -6 -9 9 -4 -24 5 -7
6 -5 -9 9 -4 -24 6 -7
8 -5 -10 9 -3 -24 6 -7
9 -4 -11 10 -2 -23 7 -6
10 -4 -11 10 0 -22 7 -6
11 -3 -12 10 1 -21 8 -5
11 -2 -13 10 2 -20 9 -5
12 -2 -13 10 3 -19 9 -5
13 0 -14 11 4 -18 10 -4
15 0 -16 11 5 -17 11 -4
16 1 -18 11 7 -16 13 -3
17 2 -20 11 8 -16 14 -2
19 2 -22 11 9 -15 15 -2
20 3 -23 12 10 -14 16 0
22 3 -25 12 11 -12 18 2
24 3 -26 11 12 -11 19 3
26 3 -27 11 13 -10 20 4
28 3 -29 11 14 -8 22 6
29 3 -30 10 15 -7 23 7
30 5 -32 9 15 -7 23 8
31 6 -33 8 15 -6 24 8
33 8 -34 7 16 -5 25 9
34 10 -36 6 16 -5 25 10
35 11 -37 5 17 -4 26 11
35 11 -38 3 17 -4 26 11
35 11 -39 1 16 -4 26 11
35 11 -40 -2 15 -5 26 11
35 11 -41 -4 15 -5 26 11
36 11 -43 -6 14 -6 27 11
36 11 -43 -6 14 -6 27 11
36 11 -43 -7 13 -6 27 11
35 11 -43 -8 12 -6 27 12
35 11 -43 -8 12 -6 27 12
34 11 -43 -9 11 -7 26 13
33 11 -43 -9 10 -7 26 13
33 11 -41 -9 9 -8 26 13
32 11 -40 -9 8 -9 25 13
31 11 -40 -9 7 -9 25 13
29 12 -38 -10 6 -10 24 12
27 11 -36 -10 5 -11 23 12
25 10 -34 -9 4 -11 22 11
23 9 -32 -8 3 -12 20 10
21 8 -30 -8 2 -13 19 10
19 7 -27 -7 1 -14 18 9
18 6 -24 -5 0 -15 16 7
17 5 -22 -4 -2 -15 15 6
15 4 -19 -3 -4 -16 14 4
14 3 -16 0 -5 -17 12 2
13 2 -14 1 -6 -18 11 1
11 2 -12 1 -6 -18 9 0
9 2 -11 2 -7 -18 8 -2
7 1 -10 3 -8 -19 7 -4
5 1 -8 3 -8 -19 5 -5
3 0 -7 4 -9 -20 4 -6
2 -2 -6 5 -9 -20 3 -7
2 -2 -5 5 -10 -20 2 -8
1 -3 -3 6 -11 -20 0 -9
0 -4 -2 7 -11 -20 -2 -10
-2 -5 0 8 -12 -21 -3 -11
-3 -5 0 8 -12 -21 -3 -11
-4 -6 0 8 -12 -21 -3 -11
-6 -7 0 8 -13 -21 -4 -11
-7 -7 0 8 -13 -21 -4 -11
-8 -8 1 8 -14 -21 -5 -12
-8 -8 1 8 -14 -21 -5 -12
-8 -8 2 8 -14 -21 -5 -12
-8 -8 3 8 -15 -21 -5 -12
-8 -8 3 8 -15 -21 -5 -12
-9 -9 4 7 -16 -19 -5 -12
-9 -9 4 7 -16 -16 -5 -12
-9 -9 4 7 -16 -12 -5 -12
-9 -8 4 6 -16 -9 -5 -12
-9 -8 4 6 -16 -5 -5 -12
-10 -7 5 5 -15 1 -6 -13
-10 -7 5 5 -11 8 -6 -13
-9 -7 5 6 -7 15 -6 -13
-8 -7 5 7 -3 22 -6 -12
-8 -7 5 7 1 30 -6 -12
-7 -8 5 8 4 34 -5 -11
-7 -8 5 8 4 34 -5 -11
-7 -8 5 8 4 34 -5 -11
-8 -8 5 8 4 33 -5 -11
-8 -8 5 8 4 33 -5 -11
-9 -8 5 9 5 32 -4 -11
-9 -8 5 9 5 32 -4 -11
-9 -7 5 9 5 32 -4 -11
-9 -6 6 9 4 32 -4 -10
-9 -6 6 9 4 32 -4 -10
-8 -5 7 10 3 31 -4 -9
-8 -5 7 10 3 31 -4 -9
-8 -5 7 10 3 31 -4 -9
-8 -5 6 10 3 31 -4 -9
-8 -5 6 10 3 31 -4 -9
-7 -5 5 9 3 31 -4 -10
-7 -4 5 9 3 31 -4 -9
-7 -4 5 9 3 31 -4 -9
-7 -3 5 9 3 30 -4 -8
-7 -2 5 9 3 30 -4 -7
-7 0 5 9 2 29 -3 -6
-7 0 5 9 2 29 -3 -6
-7 -2 5 9 2 29 -3 -6
-7 -3 5 9 2 29 -3 -7
-7 -3 5 9 2 29 -3 -7
-8 -4 6 9 2 29 -3 -8
-8 -4 6 9 2 29 -3 -8
-8 -4 6 9 2 29 -3 -8
-8 -3 6 9 2 28 -3 -7
-8 -3 6 9 2 28 -3 -7
-9 -2 6 10 1 27 -3 -6
-9 0 7 10 1 27 -3 -6
-9 2 8 11 2 28 -2 -5
-8 3 9 12 3 29 0 -4
-8 5 10 12 3 29 0 -4
-7 6 11 13 4 30 1 -3
-7 6 11 13 4 30 1 -3
-7 6 11 13 4 30 1 -3
-7 6 11 13 4 30 1 -2
-7 6 11 13 4 30 1 -2
-7 7 11 14 4 29 1 0
-7 7 12 14 5 29 1 0
-7 7 13 14 5 29 2 0
-7 7 14 15 6 29 3 0
-7 7 15 15 7 29 3 0
-6 8 16 16 8 30 4 1
-6 10 16 16 8 30 4 1
-5 11 16 16 8 30 4 1
-4 13 17 16 8 29 4 1
-4 15 17 16 8 29 4 1
-3 16 18 16 7 28 4 2
-3 16 18 16 7 28 4 2
-3 16 18 16 7 27 4 2
-3 16 17 15 7 26 4 2
-3 16 17 15 7 26 4 2
-4 16 16 14 7 25 4 3
-4 17 16 14 7 25 4 4
-4 18 16 14 7 25 5 4
-4 20 15 13 7 24 6 5
-4 21 15 13 7 24 6 6
-4 22 14 12 7 23 7 7
-3 22 14 12 7 23 7 7
-2 22 14 11 7 23 7 7
0 23 13 10 7 22 7 7
1 23 13 10 7 22 7 7
2 23 12 9 7 21 7 6
2 19 11 8 6 19 6 5
2 15 11 8 5 17 5 5
2 12 10 7 3 15 3 4
2 8 9 6 2 14 2 3
3 5 8 5 1 12 1 2
2 4 8 4 1 11 0 1
1 2 7 4 1 9 -2 0
0 1 6 3 0 8 -4 -3
-2 -2 6 2 0 6 -5 -4
-3 -3 5 1 -2 5 -6 -5
-4 -5 5 1 -3 4 -6 -5
-6 -6 5 0 -4 4 -6 -5
-7 -8 4 -2 -6 3 -7 -6
-9 -10 4 -2 -7 2 -7 -6
-10 -11 3 -3 -8 1 -8 -7
-10 -11 3 -3 -8 0 -8 -7
-10 -11 3 -3 -8 0 -8 -7
-10 -11 3 -3 -8 -2 -8 -8
-10 -11 3 -3 -8 -3 -8 -8
-11 -10 3 -4 -8 -4 -9 -9
-11 -10 3 -4 -8 -5 -9 -9
-11 -10 3 -5 -9 -6 -9 -9
-11 -10 2 -6 -10 -8 -9 -9
-11 -10 2 -6 -10 -9 -9 -9
-10 -11 1 -7 -11 -10 -10 -9
-10 -11 1 -7 -11 -10 -10 -9
-10 -11 1 -7 -11 -10 -10 -9
-10 -11 1 -7 -11 -10 -10 -8
-10 -11 1 -7 -11 -10 -10 -8
-9 -11 1 -7 -10 -9 -9 -7
-9 -11 1 -7 -10 -10 -9 -7
-9 -11 1 -7 -11 -10 -9 -7
-9 -12 1 -7 -12 -11 -10 -7
-9 -12 1 -7 -12 -12 -10 -7
-10 -13 0 -6 -13 -13 -11 -8
-10 -13 0 -6 -13 -13 -11 -8
-10 -13 0 -6 -13 -13 -11 -8
-10 -14 0 -6 -13 -14 -11 -9
-10 -14 0 -6 -13 -14 -11 -9
-10 -15 -2 -6 -14 -15 -11 -10
-8 -15 1 -2 -13 -15 -11 -10
-7 -15 3 2 -11 -15 -11 -10
-5 -16 5 6 -10 -14 -11 -11
-4 -16 6 10 -8 -14 -11 -11
1 -14 11 18 -3 -10 -9 -11
7 -6 19 33 9 1 0 -6
13 3 27 49 20 12 7 0
19 12 36 64 31 22 14 5
26 20 45 79 43 32 22 9
32 31 52 95 58 47 33 18
39 49 55 109 79 67 51 32
47 65 59 123 101 89 69 47
54 82 62 138 121 109 88 62
61 99 65 152 143 130 105 76
64 110 65 155 156 144 117 88
56 113 54 134 151 141 118 92
49 116 44 112 147 139 119 96
40 119 33 91 142 136 120 101
32 122 22 69 137 134 121 105
20 117 13 42 118 116 112 101
-3 94 7 2 71 71 80 80
-25 71 0 -38 25 26 50 60
-48 48 -7 -77 -22 -19 19 39
-70 25 -13 -117 -68 -64 -13 19
-83 7 -20 -143 -99 -94 -34 3
-74 -3 -27 -140 -98 -94 -38 -5
-66 -13 -34 -136 -96 -94 -41 -11
-57 -23 -43 -132 -95 -94 -46 -18
-49 -32 -50 -129 -93 -94 -50 -25
-41 -39 -54 -121 -90 -91 -52 -30
-37 -38 -50 -109 -81 -83 -48 -30
-33 -37 -45 -96 -73 -76 -45 -30
-28 -36 -40 -82 -65 -68 -40 -29
-24 -35 -35 -70 -57 -61 -36 -29
-21 -34 -31 -59 -50 -55 -32 -28
-19 -32 -26 -51 -44 -50 -28 -25
-17 -29 -21 -43 -38 -45 -25 -22
-15 -27 -16 -34 -32 -39 -21 -20
-13 -25 -11 -27 -27 -34 -17 -17
-11 -23 -7 -21 -23 -30 -14 -15
-11 -22 -7 -19 -22 -29 -13 -14
-11 -21 -6 -18 -22 -29 -13 -14
-11 -20 -5 -16 -21 -28 -12 -13
-11 -19 -5 -15 -20 -27 -11 -12
-10 -18 -4 -13 -19 -26 -10 -11
-10 -17 -4 -13 -19 -26 -10 -11
-9 -17 -4 -13 -19 -26 -10 -11
-9 -16 -3 -12 -18 -26 -10 -11
-8 -15 -3 -12 -18 -26 -10 -11
-7 -14 -2 -11 -17 -25 -10 -11
-7 -14 -2 -11 -17 -25 -10 -11
-7 -14 -2 -11 -17 -25 -10 -11
-7 -14 -2 -11 -17 -25 -9 -10
-7 -14 -2 -11 -17 -25 -9 -10
-8 -13 -2 -11 -16 -25 -8 -9
-8 -13 -2 -10 -16 -25 -7 -9
-8 -13 -2 -9 -16 -25 -7 -9
-7 -13 -2 -8 -16 -25 -6 -8
-7 -13 -2 -7 -16 -25 -5 -8
-6 -12 0 -6 -16 -24 -4 -7
-6 -12 0 -6 -16 -24 -4 -7
-6 -12 0 -6 -16 -24 -4 -7
-6 -12 0 -6 -16 -24 -4 -7
-6 -12 0 -6 -16 -24 -4 -7
-6 -12 0 -7 -15 -25 -4 -6
-6 -12 0 -7 -15 -25 -4 -6
-5 -11 0 -7 -15 -25 -4 -6
-5 -11 0 -6 -15 -24 -4 -6
-4 -10 0 -6 -15 -24 -4 -6
-3 -9 1 -5 -14 -23 -3 -6
-3 -9 1 -5 -14 -23 -3 -6
-3 -9 1 -5 -14 -23 -3 -6
-3 -9 0 -5 -14 -23 -3 -6
-3 -9 0 -5 -14 -23 -3 -6
-2 -8 -2 -4 -14 -22 -2 -6
-2 -8 -2 -4 -14 -21 -2 -6
-2 -8 -2 -3 -14 -21 -2 -6
-2 -8 -2 -3 -13 -20 -2 -6
-2 -8 -2 -2 -13 -19 -2 -6
-2 -7 -3 0 -12 -18 0 -5
0 -7 -3 0 -12 -18 0 -5
0 -7 -4 0 -12 -18 0 -5
1 -7 -4 0 -11 -18 0 -5
2 -7 -5 0 -11 -18 0 -5
3 -7 -6 0 -10 -17 1 -4
3 -7 -6 0 -10 -17 2 -4
3 -7 -7 1 -10 -17 2 -4
4 -6 -7 1 -9 -17 3 -4
4 -6 -8 2 -9 -17 4 -4
5 -5 -9 3 -8 -16 5 -3
6 -4 -10 3 -8 -16 5 -2
8 -3 -12 3 -8 -16 6 -2
9 -2 -13 3 -8 -15 6 0
11 1 -15 3 -8 -15 7 1
12 2 -16 2 -6 -12 8 2
13 2 -16 2 -3 -2 8 3
13 2 -16 3 2 8 9 4
14 2 -17 3 5 17 9 5
15 2 -17 4 9 27 10 6
16 2 -18 5 13 37 11 7
18 3 -21 4 19 48 12 7
21 4 -23 3 25 59 14 7
23 5 -26 2 31 69 15 8
25 7 -29 0 36 80 16 8
27 8 -31 -2 42 89 18 9
27 8 -32 -2 43 89 19 10
27 8 -32 -2 44 89 20 11
28 8 -33 -2 45 89 21 12
28 8 -34 -2 46 89 22 14
29 8 -35 -3 47 88 23 15
31 9 -36 -5 47 88 23 15
32 11 -38 -7 47 88 23 16
34 12 -39 -9 46 87 23 16
35 13 -40 -11 46 87 23 17
37 15 -43 -13 45 86 24 18
37 15 -43 -14 44 85 24 18
37 15 -43 -14 42 84 24 18
36 15 -43 -15 40 82 24 18
36 15 -43 -16 39 80 24 18
35 14 -43 -17 37 79 24 19
34 14 -43 -17 36 77 24 19
33 14 -43 -18 34 75 24 19
32 13 -41 -18 33 74 24 19
30 13 -41 -19 32 72 24 19
29 12 -40 -20 30 70 23 20
28 12 -38 -20 30 69 23 19
27 12 -36 -20 29 68 22 18
26 12 -34 -20 29 67 22 17
24 12 -32 -20 28 66 21 16
23 11 -30 -20 27 65 20 15
21 10 -28 -19 25 63 18 14
19 8 -26 -19 24 61 17 13
16 7 -23 -18 22 60 15 12
14 6 -21 -17 21 58 14 11
12 4 -19 -16 19 56 12 10
10 4 -16 -14 19 55 11 9
8 4 -14 -13 18 55 10 8
6 3 -12 -11 18 54 9 7
4 3 -9 -10 17 53 8 5
2 2 -7 -8 16 52 7 4
1 1 -6 -7 15 50 6 3
1 0 -5 -7 13 48 6 2
0 -2 -4 -6 12 46 5 1
-2 -3 -3 -5 11 44 4 0
-3 -4 -2 -4 9 42 3 -2
-4 -4 0 -4 9 40 2 -3
-5 -4 1 -4 9 39 1 -3
-6 -5 2 -3 8 38 0 -4
-7 -5 3 -3 8 36 -2 -5
-8 -6 4 -2 7 35 -3 -6
-8 -6 4 -2 7 34 -3 -6
-8 -6 4 -2 6 33 -3 -6
-9 -7 4 -2 6 32 -3 -6
-9 -7 4 -2 5 31 -3 -6
-10 -8 5 0 4 30 -3 -7
-10 -8 5 0 4 30 -3 -7
-10 -8 5 0 4 29 -3 -7
-10 -8 6 0 4 29 -3 -7
-10 -8 6 0 4 28 -3 -7
-10 -8 7 1 3 27 -3 -7
-10 -8 7 1 3 26 -3 -7
-10 -8 7 1 3 25 -3 -7
-10 -8 7 1 3 24 -3 -7
-10 -8 7 1 3 23 -3 -7
-10 -8 7 1 2 22 -2 -8
-10 -8 7 1 2 22 -2 -8
-10 -8 7 2 2 22 -2 -8
-10 -8 7 3 2 22 -3 -8
-10 -8 7 4 2 22 -3 -8
-10 -7 7 5 3 21 -4 -7
-10 -7 7 5 3 21 -4 -7
-10 -7 7 5 3 20 -4 -7
-10 -7 7 5 3 19 -4 -7
-10 -7 7 5 3 18 -4 -7
-10 -6 6 4 3 17 -3 -8
-10 -6 6 4 3 17 -3 -8
-10 -6 6 4 3 17 -3 -7
-10 -7 6 5 4 17 -2 -7
-10 -7 6 5 4 17 -2 -6
-11 -8 7 6 5 17 0 -5
-11 -8 7 6 5 17 0 -5
-11 -7 7 6 5 16 0 -5
-11 -6 7 5 5 15 0 -5
-11 -5 7 5 5 14 0 -5
-10 -4 6 4 5 13 0 -5
-10 -4 6 4 5 13 0 -5
-9 -4 6 4 5 12 0 -5
-9 -4 7 4 5 12 0 -5
-8 -4 7 4 5 11 0 -5
-7 -3 8 5 5 10 -2 -6
-7 -3 8 5 5 10 -2 -6
-7 -3 8 5 5 9 -2 -6
-7 -3 8 4 5 8 -2 -5
-7 -3 8 4 5 7 -2 -5
-8 -2 8 3 4 6 0 -4
-8 -2 8 3 4 6 0 -4
-8 0 9 4 4 6 0 -4
-8 1 10 5 4 6 0 -4
-8 2 11 6 4 6 0 -4
-8 3 12 7 5 6 1 -4
-8 3 12 7 5 6 1 -4
-7 4 12 7 5 6 2 -3
-7 5 13 8 6 6 3 -2
-6 6 13 8 6 6 4 0
-5 7 14 9 7 5 5 1
-5 7 14 9 7 5 5 1
-5 7 15 10 7 5 5 1
-5 7 15 10 7 5 5 1
-5 7 16 11 7 5 5 1
-6 8 17 12 8 4 5 0
-6 8 17 12 8 4 5 0
-6 9 17 12 8 4 5 0
-6 10 18 12 8 3 5 1
-6 11 18 12 8 3 5 1
-6 12 19 12 7 2 6 2
-6 13 19 12 7 2 6 2
-5 14 19 12 7 2 6 2
-5 15 19 13 7 2 6 3
-4 17 19 13 7 2 6 3
-3 18 18 14 7 2 7 4
-3 19 18 14 7 2 7 4
-2 20 18 14 7 2 7 4
-2 21 17 14 7 1 7 4
0 22 17 14 7 1 7 4
1 23 16 14 6 0 8 5
1 23 16 14 6 0 8 5
1 23 16 14 6 0 8 5
2 22 15 14 6 0 8 5
2 22 15 14 6 0 8 5
3 21 14 14 5 0 7 6
3 19 13 12 4 -2 6 5
3 16 11 10 2 -3 4 4
3 14 9 8 1 -4 3 3
3 11 8 6 0 -6 2 1
3 9 6 4 -3 -7 0 0
3 8 6 4 -3 -7 0 -2
2 6 6 4 -4 -7 -2 -3
1 4 6 3 -5 -7 -3 -4
0 3 6 3 -6 -7 -4 -5
-2 1 6 2 -7 -7 -5 -6
-3 0 6 2 -7 -7 -5 -6
-4 -3 6 2 -7 -7 -5 -7
-5 -5 5 1 -7 -7 -6 -7
-7 -6 5 1 -7 -7 -6 -8
-8 -8 4 0 -8 -7 -7 -9
-8 -8 4 0 -8 -7 -8 -9
-8 -9 4 -2 -9 -8 -9 -9
-9 -9 3 -3 -10 -8 -10 -10
-9 -10 3 -4 -11 -9 -11 -10
-10 -11 2 -5 -12 -10 -12 -11
-10 -11 2 -5 -12 -10 -12 -11
-10 -11 2 -5 -12 -10 -12 -11
-10 -11 2 -6 -13 -10 -12 -11
-10 -11 2 -6 -13 -10 -12 -11
-9 -10 1 -7 -14 -10 -12 -12
-9 -10 1 -7 -14 -10 -12 -12
-9 -10 1 -7 -14 -10 -12 -12
-9 -11 1 -7 -14 -10 -12 -12
-9 -11 1 -7 -14 -10 -12 -12
-9 -12 0 -7 -14 -9 -12 -13
-9 -12 0 -7 -14 -9 -12 -13
-9 -12 0 -7 -14 -9 -12 -13
-10 -13 0 -7 -14 -9 -12 -13
-10 -13 0 -7 -14 -9 -12 -13
-11 -14 -2 -8 -15 -8 -13 -13
-11 -14 -2 -8 -15 -7 -13 -13
-11 -14 -2 -8 -15 -6 -13 -13
-11 -14 -2 -8 -15 -5 -13 -13
-11 -14 -2 -8 -15 -4 -13 -13
-11 -13 -2 -8 -14 -2 -14 -13
-10 -14 0 -6 -13 0 -14 -13
-8 -15 1 -3 -12 1 -14 -13
-6 -16 2 0 -11 2 -14 -14
-5 -17 3 2 -10 3 -14 -14
-3 -18 5 6 -7 6 -14 -15
3 -13 12 20 3 14 -9 -12
9 -9 20 33 11 23 -4 -9
14 -4 27 48 20 32 2 -7
19 2 35 61 29 40 6 -4
25 8 43 75 39 52 13 1
32 24 48 93 61 73 29 15
40 39 52 109 82 95 47 28
49 56 57 127 103 116 63 42
57 72 62 144 125 138 79 55
64 88 65 158 143 157 95 68
59 97 58 149 146 162 102 77
55 107 51 140 149 168 109 87
51 116 44 131 153 173 116 96
46 126 36 120 156 177 123 106
38 133 29 106 153 177 128 112
15 111 23 61 107 132 97 93
-9 91 17 16 60 88 67 73
-32 70 11 -29 13 44 36 55
-56 49 5 -74 -34 0 7 35
-77 29 -3 -114 -75 -39 -21 17
-72 16 -13 -118 -80 -46 -28 8
-67 2 -22 -122 -87 -51 -36 -3
-62 -12 -32 -126 -92 -56 -45 -12
-58 -25 -43 -130 -97 -62 -53 -21
-53 -37 -52 -133 -101 -66 -60 -30
-48 -38 -50 -119 -93 -58 -57 -30
-41 -39 -47 -105 -83 -49 -54 -30
-36 -40 -45 -92 -74 -40 -51 -30
-31 -41 -43 -78 -65 -31 -48 -30
-26 -44 -39 -65 -57 -23 -45 -31
-24 -39 -34 -57 -51 -17 -40 -29
-22 -36 -29 -48 -45 -11 -37 -26
-20 -32 -24 -39 -38 -5 -33 -24
-17 -29 -19 -30 -33 1 -30 -22
-15 -25 -14 -22 -27 7 -26 -19
-15 -24 -12 -19 -25 9 -24 -18
